muestra,ecg,bpm,rr_ms,qrs_ms,r_mv,sqi
0,0,0,0,0,0.00,0
1,0,0,0,0,0.00,0
2,0,0,0,0,0.00,0
3,0,0,0,0,0.00,0
4,0,0,0,0,0.00,0
5,0,0,0,0,0.00,0
6,1,0,0,0,0.00,0
7,0,0,0,0,0.00,0
8,-1,0,0,0,0.00,0
9,-1,0,0,0,0.00,0
10,0,0,0,0,0.00,0
11,1,0,0,0,0.00,0
12,2,0,0,0,0.00,0
13,1,0,0,0,0.00,0
14,-1,0,0,0,0.00,0
15,-3,0,0,0,0.00,0
16,-1,0,0,0,0.00,0
17,2,0,0,0,0.00,0
18,3,0,0,0,0.00,0
19,1,0,0,0,0.00,0
20,-4,0,0,0,0.00,0
21,-4,0,0,0,0.00,0
22,0,0,0,0,0.00,0
23,6,0,0,0,0.00,0
24,6,0,0,0,0.00,0
25,0,0,0,0,0.00,0
26,-8,0,0,0,0.00,0
27,-8,0,0,0,0.00,0
28,2,0,0,0,0.00,0
29,11,0,0,0,0.00,0
30,10,0,0,0,0.00,0
31,-4,0,0,0,0.00,0
32,-16,0,0,0,0.00,0
33,-12,0,0,0,0.00,0
34,8,0,0,0,0.00,0
35,25,0,0,0,0.00,0
36,16,0,0,0,0.00,0
37,-18,0,0,0,0.00,0
38,-45,0,0,0,0.00,0
39,-24,0,0,0,0.00,0
40,56,0,0,0,0.00,0
41,155,0,0,0,0.00,0
42,199,0,0,0,0.00,0
43,142,0,0,0,0.00,0
44,0,0,0,0,0.00,0
45,-147,0,0,0,0.00,0
46,-214,0,0,0,0.00,0
47,-175,0,0,0,0.00,0
48,-90,0,0,0,0.00,0
49,-55,0,0,0,0.00,0
50,-138,0,0,0,0.00,0
51,-312,0,0,0,0.00,0
52,-473,0,0,0,0.00,0
53,-502,0,0,0,0.00,0
54,-348,0,0,0,0.00,0
55,-67,0,0,0,0.00,0
56,205,0,0,0,0.00,0
57,334,0,0,0,0.00,0
58,265,0,0,0,0.00,0
59,48,0,0,0,0.00,0
60,-193,0,0,0,0.00,0
61,-341,0,0,0,0.00,0
62,-351,0,0,0,0.00,0
63,-263,0,0,0,0.00,0
64,-160,0,0,0,0.00,0
65,-104,0,0,0,0.00,0
66,-102,0,0,0,0.00,0
67,-116,0,0,0,0.00,0
68,-115,0,0,0,0.00,0
69,-104,0,0,0,0.00,0
70,-125,0,0,0,0.00,0
71,-196,0,0,0,0.00,0
72,-286,0,0,0,0.00,0
73,-317,0,0,0,0.00,0
74,-233,0,0,0,0.00,0
75,-55,0,0,0,0.00,0
76,118,0,0,0,0.00,0
77,184,0,0,0,0.00,0
78,117,0,0,0,0.00,0
79,-10,0,0,0,0.00,0
80,-88,0,0,0,0.00,0
81,-65,0,0,0,0.00,0
82,10,0,0,0,0.00,0
83,40,0,0,0,0.00,0
84,-27,0,0,0,0.00,0
85,-140,0,0,0,0.00,0
86,-203,0,0,0,0.00,0
87,-166,0,0,0,0.00,0
88,-86,0,0,0,0.00,0
89,-73,0,0,0,0.00,0
90,-183,0,0,0,0.00,0
91,-353,0,0,0,0.00,0
92,-450,0,0,0,0.00,0
93,-394,0,0,0,0.00,0
94,-240,0,0,0,0.00,0
95,-129,0,0,0,0.00,0
96,-161,0,0,0,0.00,0
97,-290,0,0,0,0.00,0
98,-361,0,0,0,0.00,0
99,-249,0,0,0,0.00,0
100,29,0,0,0,0.00,0
101,309,0,0,0,0.00,0
102,423,0,0,0,0.00,0
103,331,0,0,0,0.00,0
104,151,0,0,0,0.00,0
105,50,0,0,0,0.00,0
106,103,0,0,0,0.00,0
107,238,0,0,0,0.00,0
108,311,0,0,0,0.00,0
109,238,0,0,0,0.00,0
110,66,0,0,0,0.00,0
111,-77,0,0,0,0.00,0
112,-93,0,0,0,0.00,0
113,-3,0,0,0,0.00,0
114,86,0,0,0,0.00,0
115,78,0,0,0,0.00,0
116,-23,0,0,0,0.00,0
117,-122,0,0,0,0.00,0
118,-117,0,0,0,0.00,0
119,6,0,0,0,0.00,0
120,167,0,0,0,0.00,0
121,261,0,0,0,0.00,0
122,247,0,0,0,0.00,0
123,179,0,0,0,0.00,0
124,147,0,0,0,0.00,0
125,200,0,0,0,0.00,0
126,308,0,0,0,0.00,0
127,393,0,0,0,0.00,0
128,390,0,0,0,0.00,0
129,292,0,0,0,0.00,0
130,138,0,0,0,0.00,0
131,-13,0,0,0,0.00,0
132,-110,0,0,0,0.00,0
133,-108,0,0,0,0.00,0
134,16,0,0,0,0.00,0
135,237,0,0,0,0.00,0
136,469,0,0,0,0.00,0
137,593,0,0,0,0.00,0
138,526,0,0,0,0.00,0
139,289,0,0,0,0.00,0
140,5,0,0,0,0.00,0
141,-182,0,0,0,0.00,0
142,-206,0,0,0,0.00,0
143,-117,0,0,0,0.00,0
144,-26,0,0,0,0.00,0
145,-6,0,0,0,0.00,0
146,-48,0,0,0,0.00,0
147,-88,0,0,0,0.00,0
148,-86,0,0,0,0.00,0
149,-64,0,0,0,0.00,0
150,-77,0,0,0,0.00,0
151,-144,0,0,0,0.00,0
152,-226,0,0,0,0.00,0
153,-254,0,0,0,0.00,0
154,-195,0,0,0,0.00,0
155,-81,0,0,0,0.00,0
156,19,0,0,0,0.00,0
157,51,0,0,0,0.00,0
158,16,0,0,0,0.00,0
159,-43,0,0,0,0.00,0
160,-86,0,0,0,0.00,0
161,-97,0,0,0,0.00,0
162,-89,0,0,0,0.00,0
163,-80,0,0,0,0.00,0
164,-77,0,0,0,0.00,0
165,-75,0,0,0,0.00,0
166,-71,0,0,0,0.00,0
167,-65,0,0,0,0.00,0
168,-63,0,0,0,0.00,0
169,-64,0,0,0,0.00,0
170,-61,0,0,0,0.00,0
171,-49,0,0,0,0.00,0
172,-29,0,0,0,0.00,0
173,-15,0,0,0,0.00,0
174,-16,0,0,0,0.00,0
175,-29,0,0,0,0.00,0
176,-43,0,0,0,0.00,0
177,-43,0,0,0,0.00,0
178,-31,0,0,0,0.00,0
179,-25,0,0,0,0.00,0
180,-45,0,0,0,0.00,0
181,-87,0,0,0,0.00,0
182,-123,0,0,0,0.00,0
183,-117,0,0,0,0.00,0
184,-61,0,0,0,0.00,0
185,20,0,0,0,0.00,0
186,73,0,0,0,0.00,0
187,71,0,0,0,0.00,0
188,30,0,0,0,0.00,0
189,1,0,0,0,0.00,0
190,24,0,0,0,0.00,0
191,92,0,0,0,0.00,0
192,154,0,0,0,0.00,0
193,158,0,0,0,0.00,0
194,96,0,0,0,0.00,0
195,13,0,0,0,0.00,0
196,-37,0,0,0,0.00,0
197,-31,0,0,0,0.00,0
198,6,0,0,0,0.00,0
199,26,0,0,0,0.00,0
200,6,0,0,0,0.00,0
201,-35,0,0,0,0.00,0
202,-60,0,0,0,0.00,0
203,-49,0,0,0,0.00,0
204,-14,0,0,0,0.00,0
205,8,0,0,0,0.00,0
206,-2,0,0,0,0.00,0
207,-33,0,0,0,0.00,0
208,-52,0,0,0,0.00,0
209,-34,0,0,0,0.00,0
210,15,0,0,0,0.00,0
211,66,0,0,0,0.00,0
212,86,0,0,0,0.00,0
213,67,0,0,0,0.00,0
214,28,0,0,0,0.00,0
215,-4,0,0,0,0.00,0
216,-13,0,0,0,0.00,0
217,-5,0,0,0,0.00,0
218,4,0,0,0,0.00,0
219,0,0,0,0,0.00,0
220,-15,0,0,0,0.00,0
221,-30,0,0,0,0.00,0
222,-32,0,0,0,0.00,0
223,-18,0,0,0,0.00,0
224,-1,0,0,0,0.00,0
225,8,0,0,0,0.00,0
226,5,0,0,0,0.00,0
227,-5,0,0,0,0.00,0
228,-12,0,0,0,0.00,0
229,-9,0,0,0,0.00,0
230,-2,0,0,0,0.00,0
231,4,0,0,0,0.00,0
232,3,0,0,0,0.00,0
233,-4,0,0,0,0.00,0
234,-8,0,0,0,0.00,0
235,-8,0,0,0,0.00,0
236,-3,0,0,0,0.00,0
237,0,0,0,0,0.00,0
238,0,0,0,0,0.00,0
239,-1,0,0,0,0.00,0
240,2,0,0,0,0.00,0
241,8,0,0,0,0.00,0
242,10,0,0,0,0.00,0
243,4,0,0,0,0.00,0
244,-5,0,0,0,0.00,0
245,-10,0,0,0,0.00,0
246,-6,0,0,0,0.00,0
247,2,0,0,0,0.00,0
248,6,0,0,0,0.00,0
249,1,0,0,0,0.00,0
250,-6,0,0,0,0.00,0
251,-2,0,0,0,0.00,0
252,17,0,0,0,0.00,0
253,35,0,0,0,0.00,0
254,31,0,0,0,0.00,0
255,-4,0,0,0,0.00,0
256,-54,0,0,0,0.00,0
257,-92,0,0,0,0.00,0
258,-99,0,0,0,0.00,0
259,-82,0,0,0,0.00,0
260,-61,0,0,0,0.00,0
261,-51,0,0,0,0.00,0
262,-52,0,0,0,0.00,0
263,-52,0,0,0,0.00,0
264,-43,0,0,0,0.00,0
265,-30,0,0,0,0.00,0
266,-19,0,0,0,0.00,0
267,-9,0,0,0,0.00,0
268,11,0,0,0,0.00,0
269,46,0,0,0,0.00,0
270,88,0,0,0,0.00,0
271,121,0,0,0,0.00,0
272,138,0,0,0,0.00,0
273,145,0,0,0,0.00,0
274,158,0,0,0,0.00,0
275,174,0,0,0,0.00,0
276,178,0,0,0,0.00,0
277,152,0,0,0,0.00,0
278,105,0,0,0,0.00,0
279,70,0,0,0,0.00,0
280,77,0,0,0,0.00,0
281,123,0,0,0,0.00,0
282,169,0,0,0,0.00,0
283,174,0,0,0,0.00,0
284,130,0,0,0,0.00,0
285,75,0,0,0,0.00,0
286,54,0,0,0,0.00,0
287,77,0,0,0,0.00,0
288,108,0,0,0,0.00,0
289,100,0,0,0,0.00,0
290,40,0,0,0,0.00,0
291,-33,0,0,0,0.00,0
292,-64,0,0,0,0.00,0
293,-33,0,0,0,0.00,0
294,30,0,0,0,0.00,0
295,72,0,0,0,0.00,0
296,64,0,0,0,0.00,0
297,27,0,0,0,0.00,0
298,8,0,0,0,0.00,0
299,39,0,0,0,0.00,0
300,110,0,0,0,0.00,0
301,175,0,0,0,0.00,0
302,196,0,0,0,0.00,0
303,167,0,0,0,0.00,0
304,112,0,0,0,0.00,0
305,64,0,0,0,0.00,0
306,45,0,0,0,0.00,0
307,54,0,0,0,0.00,0
308,77,0,0,0,0.00,0
309,98,0,0,0,0.00,0
310,110,0,0,0,0.00,0
311,109,0,0,0,0.00,0
312,102,0,0,0,0.00,0
313,97,0,0,0,0.00,0
314,102,0,0,0,0.00,0
315,117,0,0,0,0.00,0
316,136,0,0,0,0.00,0
317,145,0,0,0,0.00,0
318,138,0,0,0,0.00,0
319,116,0,0,0,0.00,0
320,91,0,0,0,0.00,0
321,72,0,0,0,0.00,0
322,64,0,0,0,0.00,0
323,65,0,0,0,0.00,0
324,69,0,0,0,0.00,0
325,75,0,0,0,0.00,0
326,79,0,0,0,0.00,0
327,78,0,0,0,0.00,0
328,70,0,0,0,0.00,0
329,57,0,0,0,0.00,0
330,43,0,0,0,0.00,0
331,34,0,0,0,0.00,0
332,33,0,0,0,0.00,0
333,35,0,0,0,0.00,0
334,34,0,0,0,0.00,0
335,28,0,0,0,0.00,0
336,21,0,0,0,0.00,0
337,17,0,0,0,0.00,0
338,15,0,0,0,0.00,0
339,9,0,0,0,0.00,0
340,-4,0,0,0,0.00,0
341,-21,0,0,0,0.00,0
342,-33,0,0,0,0.00,0
343,-33,0,0,0,0.00,0
344,-23,0,0,0,0.00,0
345,-13,0,0,0,0.00,0
346,-13,0,0,0,0.00,0
347,-23,0,0,0,0.00,0
348,-34,0,0,0,0.00,0
349,-34,0,0,0,0.00,0
350,-21,0,0,0,0.00,0
351,-5,0,0,0,0.00,0
352,2,0,0,0,0.00,0
353,-10,0,0,0,0.00,0
354,-35,0,0,0,0.00,0
355,-61,0,0,0,0.00,0
356,-76,0,0,0,0.00,0
357,-76,0,0,0,0.00,0
358,-66,0,0,0,0.00,0
359,-57,0,0,0,0.00,0
360,-53,0,0,0,0.00,0
361,-53,0,0,0,0.00,0
362,-54,0,0,0,0.00,0
363,-53,0,0,0,0.00,0
364,-51,0,0,0,0.00,0
365,-52,0,0,0,0.00,0
366,-55,0,0,0,0.00,0
367,-59,0,0,0,0.00,0
368,-59,0,0,0,0.00,0
369,-53,0,0,0,0.00,0
370,-44,0,0,0,0.00,0
371,-38,0,0,0,0.00,0
372,-36,0,0,0,0.00,0
373,-39,0,0,0,0.00,0
374,-43,0,0,0,0.00,0
375,-47,0,0,0,0.00,0
376,-50,0,0,0,0.00,0
377,-50,0,0,0,0.00,0
378,-48,0,0,0,0.00,0
379,-44,0,0,0,0.00,0
380,-39,0,0,0,0.00,0
381,-36,0,0,0,0.00,0
382,-37,0,0,0,0.00,0
383,-41,0,0,0,0.00,0
384,-43,0,0,0,0.00,0
385,-43,0,0,0,0.00,0
386,-40,0,0,0,0.00,0
387,-38,0,0,0,0.00,0
388,-39,0,0,0,0.00,0
389,-41,0,0,0,0.00,0
390,-43,0,0,0,0.00,0
391,-41,0,0,0,0.00,0
392,-37,0,0,0,0.00,0
393,-33,0,0,0,0.00,0
394,-32,0,0,0,0.00,0
395,-32,0,0,0,0.00,0
396,-33,0,0,0,0.00,0
397,-34,0,0,0,0.00,0
398,-34,0,0,0,0.00,0
399,-33,0,0,0,0.00,0
400,-30,0,0,0,0.00,0
401,-25,0,0,0,0.00,0
402,-19,0,0,0,0.00,0
403,-18,0,0,0,0.00,0
404,-22,0,0,0,0.00,0
405,-29,0,0,0,0.00,0
406,-34,0,0,0,0.00,0
407,-32,0,0,0,0.00,0
408,-24,0,0,0,0.00,0
409,-15,0,0,0,0.00,0
410,-10,0,0,0,0.00,0
411,-6,0,0,0,0.00,0
412,0,0,0,0,0.00,0
413,6,0,0,0,0.00,0
414,6,0,0,0,0.00,0
415,-5,0,0,0,0.00,0
416,-23,0,0,0,0.00,0
417,-35,0,0,0,0.00,0
418,-26,0,0,0,0.00,0
419,4,0,0,0,0.00,0
420,40,0,0,0,0.00,0
421,64,0,0,0,0.00,0
422,66,0,0,0,0.00,0
423,54,0,0,0,0.00,0
424,46,0,0,0,0.00,0
425,51,0,0,0,0.00,0
426,66,0,0,0,0.00,0
427,81,0,0,0,0.00,0
428,84,0,0,0,0.00,0
429,76,0,0,0,0.00,0
430,61,0,0,0,0.00,0
431,49,0,0,0,0.00,0
432,46,0,0,0,0.00,0
433,53,0,0,0,0.00,0
434,71,0,0,0,0.00,0
435,93,0,0,0,0.00,0
436,109,0,0,0,0.00,0
437,109,0,0,0,0.00,0
438,92,0,0,0,0.00,0
439,70,0,0,0,0.00,0
440,62,0,0,0,0.00,0
441,75,0,0,0,0.00,0
442,97,0,0,0,0.00,0
443,103,0,0,0,0.00,0
444,78,0,0,0,0.00,0
445,28,0,0,0,0.00,0
446,-18,0,0,0,0.00,0
447,-34,0,0,0,0.00,0
448,-15,0,0,0,0.00,0
449,21,0,0,0,0.00,0
450,49,0,0,0,0.00,0
451,59,0,0,0,0.00,0
452,54,0,0,0,0.00,0
453,45,0,0,0,0.00,0
454,35,0,0,0,0.00,0
455,22,0,0,0,0.00,0
456,5,0,0,0,0.00,0
457,-4,0,0,0,0.00,0
458,5,0,0,0,0.00,0
459,31,0,0,0,0.00,0
460,57,0,0,0,0.00,0
461,63,0,0,0,0.00,0
462,48,0,0,0,0.00,0
463,31,0,0,0,0.00,0
464,38,0,0,0,0.00,0
465,73,0,0,0,0.00,0
466,112,0,0,0,0.00,0
467,123,0,0,0,0.00,0
468,94,0,0,0,0.00,0
469,49,0,0,0,0.00,0
470,23,0,0,0,0.00,0
471,37,0,0,0,0.00,0
472,71,0,0,0,0.00,0
473,82,0,0,0,0.00,0
474,41,0,0,0,0.00,0
475,-39,0,0,0,0.00,0
476,-114,0,0,0,0.00,0
477,-139,0,0,0,0.00,0
478,-102,0,0,0,0.00,0
479,-34,0,0,0,0.00,0
480,23,0,0,0,0.00,0
481,42,0,0,0,0.00,0
482,26,0,0,0,0.00,0
483,0,0,0,0,0.00,0
484,-10,0,0,0,0.00,0
485,1,0,0,0,0.00,0
486,23,0,0,0,0.00,0
487,39,0,0,0,0.00,0
488,34,0,0,0,0.00,0
489,6,0,0,0,0.00,0
490,-38,0,0,0,0.00,0
491,-80,0,0,0,0.00,0
492,-99,0,0,0,0.00,0
493,-83,0,0,0,0.00,0
494,-35,0,0,0,0.00,0
495,29,0,0,0,0.00,0
496,81,0,0,0,0.00,0
497,97,0,0,0,0.00,0
498,74,0,0,0,0.00,0
499,25,0,0,0,0.00,0
500,-25,0,0,0,0.00,0
501,-50,0,0,0,0.00,0
502,-43,0,0,0,0.00,0
503,-17,0,0,0,0.00,0
504,5,0,0,0,0.00,0
505,5,0,0,0,0.00,0
506,-13,0,0,0,0.00,0
507,-30,0,0,0,0.00,0
508,-24,0,0,0,0.00,0
509,8,0,0,0,0.00,0
510,52,0,0,0,0.00,0
511,80,0,0,0,0.00,0
512,81,0,0,0,0.00,0
513,61,0,0,0,0.00,0
514,40,0,0,0,0.00,0
515,36,0,0,0,0.00,0
516,45,0,0,0,0.00,0
517,53,0,0,0,0.00,0
518,49,0,0,0,0.00,0
519,35,0,0,0,0.00,0
520,23,0,0,0,0.00,0
521,24,0,0,0,0.00,0
522,33,0,0,0,0.00,0
523,39,0,0,0,0.00,0
524,31,0,0,0,0.00,0
525,12,0,0,0,0.00,0
526,-4,0,0,0,0.00,0
527,-5,0,0,0,0.00,0
528,6,0,0,0,0.00,0
529,14,0,0,0,0.00,0
530,5,0,0,0,0.00,0
531,-23,0,0,0,0.00,0
532,-51,0,0,0,0.00,0
533,-54,0,0,0,0.00,0
534,-20,0,0,0,0.00,0
535,39,0,0,0,0.00,0
536,91,0,0,0,0.00,0
537,107,0,0,0,0.00,0
538,77,0,0,0,0.00,0
539,18,0,0,0,0.00,0
540,-34,0,0,0,0.00,0
541,-54,0,0,0,0.00,0
542,-40,0,0,0,0.00,0
543,-14,0,0,0,0.00,0
544,-3,0,0,0,0.00,0
545,-18,0,0,0,0.00,0
546,-46,0,0,0,0.00,0
547,-62,0,0,0,0.00,0
548,-54,0,0,0,0.00,0
549,-27,0,0,0,0.00,0
550,-1,0,0,0,0.00,0
551,10,0,0,0,0.00,0
552,5,0,0,0,0.00,0
553,-3,0,0,0,0.00,0
554,-9,0,0,0,0.00,0
555,-15,0,0,0,0.00,0
556,-25,0,0,0,0.00,0
557,-37,0,0,0,0.00,0
558,-39,0,0,0,0.00,0
559,-21,0,0,0,0.00,0
560,10,0,0,0,0.00,0
561,34,0,0,0,0.00,0
562,34,0,0,0,0.00,0
563,13,0,0,0,0.00,0
564,-5,0,0,0,0.00,0
565,2,0,0,0,0.00,0
566,35,0,0,0,0.00,0
567,65,0,0,0,0.00,0
568,57,0,0,0,0.00,0
569,2,0,0,0,0.00,0
570,-76,0,0,0,0.00,0
571,-131,0,0,0,0.00,0
572,-135,0,0,0,0.00,0
573,-97,0,0,0,0.00,0
574,-49,0,0,0,0.00,0
575,-23,0,0,0,0.00,0
576,-24,0,0,0,0.00,0
577,-37,0,0,0,0.00,0
578,-41,0,0,0,0.00,0
579,-31,0,0,0,0.00,0
580,-16,0,0,0,0.00,0
581,-6,0,0,0,0.00,0
582,-2,0,0,0,0.00,0
583,-3,0,0,0,0.00,0
584,-5,0,0,0,0.00,0
585,-11,0,0,0,0.00,0
586,-20,0,0,0,0.00,0
587,-24,0,0,0,0.00,0
588,-15,0,0,0,0.00,0
589,6,0,0,0,0.00,0
590,28,0,0,0,0.00,0
591,36,0,0,0,0.00,0
592,30,0,0,0,0.00,0
593,21,0,0,0,0.00,0
594,21,0,0,0,0.00,0
595,31,0,0,0,0.00,0
596,37,0,0,0,0.00,0
597,30,0,0,0,0.00,0
598,18,0,0,0,0.00,0
599,22,0,0,0,0.00,0
600,52,0,0,0,0.00,0
601,91,0,0,0,0.00,0
602,104,0,0,0,0.00,0
603,75,0,0,0,0.00,0
604,22,0,0,0,0.00,0
605,-12,0,0,0,0.00,0
606,0,0,0,0,0.00,0
607,40,0,0,0,0.00,0
608,55,0,0,0,0.00,0
609,2,0,0,0,0.00,0
610,-108,0,0,0,0.00,0
611,-216,0,0,0,0.00,0
612,-253,0,0,0,0.00,0
613,-198,0,0,0,0.00,0
614,-87,0,0,0,0.00,0
615,15,0,0,0,0.00,0
616,59,0,0,0,0.00,0
617,42,0,0,0,0.00,0
618,-3,0,0,0,0.00,0
619,-41,0,0,0,0.00,0
620,-55,0,0,0,0.00,0
621,-51,0,0,0,0.00,0
622,-41,0,0,0,0.00,0
623,-34,0,0,0,0.00,0
624,-35,0,0,0,0.00,0
625,0,0,0,0,0.00,0
626,0,0,0,0,0.00,0
627,0,0,0,0,0.00,0
628,0,0,0,0,0.00,0
629,0,0,0,0,0.00,0
630,0,0,0,0,0.00,0
631,0,0,0,0,0.00,0
632,0,0,0,0,0.00,0
633,0,0,0,0,0.00,0
634,0,0,0,0,0.00,0
635,0,0,0,0,0.00,0
636,0,0,0,0,0.00,0
637,0,0,0,0,0.00,0
638,0,0,0,0,0.00,0
639,0,0,0,0,0.00,0
640,0,0,0,0,0.00,0
641,0,0,0,0,0.00,0
642,0,0,0,0,0.00,0
643,0,0,0,0,0.00,0
644,0,0,0,0,0.00,0
645,0,0,0,0,0.00,0
646,0,0,0,0,0.00,0
647,0,0,0,0,0.00,0
648,0,0,0,0,0.00,0
649,0,0,0,0,0.00,0
650,0,0,0,0,0.00,0
651,0,0,0,0,0.00,0
652,0,0,0,0,0.00,0
653,0,0,0,0,0.00,0
654,0,0,0,0,0.00,0
655,0,0,0,0,0.00,0
656,0,0,0,0,0.00,0
657,0,0,0,0,0.00,0
658,-1,0,0,0,0.00,0
659,0,0,0,0,0.00,0
660,1,0,0,0,0.00,0
661,1,0,0,0,0.00,0
662,0,0,0,0,0.00,0
663,-1,0,0,0,0.00,0
664,-2,0,0,0,0.00,0
665,0,0,0,0,0.00,0
666,2,0,0,0,0.00,0
667,2,0,0,0,0.00,0
668,0,0,0,0,0.00,0
669,-3,0,0,0,0.00,0
670,-2,0,0,0,0.00,0
671,1,0,0,0,0.00,0
672,4,0,0,0,0.00,0
673,3,0,0,0,0.00,0
674,-3,0,0,0,0.00,0
675,-6,0,0,0,0.00,0
676,-3,0,0,0,0.00,0
677,5,0,0,0,0.00,0
678,9,0,0,0,0.00,0
679,3,0,0,0,0.00,0
680,-8,0,0,0,0.00,0
681,-12,0,0,0,0.00,0
682,-2,0,0,0,0.00,0
683,12,0,0,0,0.00,0
684,16,0,0,0,0.00,0
685,2,0,0,0,0.00,0
686,-19,0,0,0,0.00,0
687,-25,0,0,0,0.00,0
688,-4,0,0,0,0.00,0
689,31,0,0,0,0.00,0
690,49,0,0,0,0.00,0
691,30,0,0,0,0.00,0
692,-25,0,0,0,0.00,0
693,-97,0,0,0,0.00,0
694,-166,0,0,0,0.00,0
695,-221,0,0,0,0.00,0
696,-257,0,0,0,0.00,0
697,-266,0,0,0,0.00,0
698,-234,0,0,0,0.00,0
699,-167,0,0,0,0.00,0
700,-95,0,0,0,0.00,0
701,-60,0,0,0,0.00,0
702,-76,0,0,0,0.00,0
703,-114,0,0,0,0.00,0
704,-123,0,0,0,0.00,0
705,-75,0,0,0,0.00,0
706,0,0,0,0,0.00,0
707,39,0,0,0,0.00,0
708,1,0,0,0,0.00,0
709,-91,0,0,0,0.00,0
710,-168,0,0,0,0.00,0
711,-176,0,0,0,0.00,0
712,-129,0,0,0,0.00,0
713,-96,0,0,0,0.00,0
714,-133,0,0,0,0.00,0
715,-234,0,0,0,0.00,0
716,-327,0,0,0,0.00,0
717,-344,0,0,0,0.00,0
718,-278,0,0,0,0.00,0
719,-188,0,0,0,0.00,0
720,-145,0,0,0,0.00,0
721,-170,0,0,0,0.00,0
722,-221,0,0,0,0.00,0
723,-231,0,0,0,0.00,0
724,-174,0,0,0,0.00,0
725,-75,0,0,0,0.00,0
726,8,0,0,0,0.00,0
727,34,0,0,0,0.00,0
728,-5,0,0,0,0.00,0
729,-87,0,0,0,0.00,0
730,-182,0,0,0,0.00,0
731,-262,0,0,0,0.00,0
732,-292,0,0,0,0.00,0
733,-246,0,0,0,0.00,0
734,-118,0,0,0,0.00,0
735,49,0,0,0,0.00,0
736,180,0,0,0,0.00,0
737,205,0,0,0,0.00,0
738,113,0,0,0,0.00,0
739,-37,0,0,0,0.00,0
740,-154,0,0,0,0.00,0
741,-183,0,0,0,0.00,0
742,-138,0,0,0,0.00,0
743,-84,0,0,0,0.00,0
744,-79,0,0,0,0.00,0
745,-128,0,0,0,0.00,0
746,-185,0,0,0,0.00,0
747,-200,0,0,0,0.00,0
748,-163,0,0,0,0.00,0
749,-110,0,0,0,0.00,0
750,-82,0,0,0,0.00,0
751,-94,0,0,0,0.00,0
752,-121,0,0,0,0.00,0
753,-124,0,0,0,0.00,0
754,-93,0,0,0,0.00,0
755,-47,0,0,0,0.00,0
756,-20,0,0,0,0.00,0
757,-29,0,0,0,0.00,0
758,-56,0,0,0,0.00,0
759,-74,0,0,0,0.00,0
760,-66,0,0,0,0.00,0
761,-42,0,0,0,0.00,0
762,-27,0,0,0,0.00,0
763,-32,0,0,0,0.00,0
764,-50,0,0,0,0.00,0
765,-60,0,0,0,0.00,0
766,-50,0,0,0,0.00,0
767,-30,0,0,0,0.00,0
768,-22,0,0,0,0.00,0
769,-42,0,0,0,0.00,0
770,-86,0,0,0,0.00,0
771,-129,0,0,0,0.00,0
772,-146,0,0,0,0.00,0
773,-124,0,0,0,0.00,0
774,-74,0,0,0,0.00,0
775,-20,0,0,0,0.00,0
776,14,0,0,0,0.00,0
777,18,0,0,0,0.00,0
778,-5,0,0,0,0.00,0
779,-37,0,0,0,0.00,0
780,-58,0,0,0,0.00,0
781,-54,0,0,0,0.00,0
782,-32,0,0,0,0.00,0
783,-14,0,0,0,0.00,0
784,-25,0,0,0,0.00,0
785,-72,0,0,0,0.00,0
786,-132,0,0,0,0.00,0
787,-165,0,0,0,0.00,0
788,-136,0,0,0,0.00,0
789,-45,0,0,0,0.00,0
790,67,0,0,0,0.00,0
791,143,0,0,0,0.00,0
792,148,0,0,0,0.00,0
793,88,0,0,0,0.00,0
794,7,0,0,0,0.00,0
795,-50,0,0,0,0.00,0
796,-62,0,0,0,0.00,0
797,-39,0,0,0,0.00,0
798,-11,0,0,0,0.00,0
799,4,0,0,0,0.00,0
800,3,0,0,0,0.00,0
801,-2,0,0,0,0.00,0
802,-3,0,0,0,0.00,0
803,-3,0,0,0,0.00,0
804,-13,0,0,0,0.00,0
805,-37,0,0,0,0.00,0
806,-65,0,0,0,0.00,0
807,-78,0,0,0,0.00,0
808,-59,0,0,0,0.00,0
809,-13,0,0,0,0.00,0
810,40,0,0,0,0.00,0
811,76,0,0,0,0.00,0
812,79,0,0,0,0.00,0
813,53,0,0,0,0.00,0
814,18,0,0,0,0.00,0
815,-7,0,0,0,0.00,0
816,-11,0,0,0,0.00,0
817,-3,0,0,0,0.00,0
818,7,0,0,0,0.00,0
819,9,0,0,0,0.00,0
820,2,0,0,0,0.00,0
821,-5,0,0,0,0.00,0
822,-6,0,0,0,0.00,0
823,-1,0,0,0,0.00,0
824,5,0,0,0,0.00,0
825,8,0,0,0,0.00,0
826,7,0,0,0,0.00,0
827,8,0,0,0,0.00,0
828,12,0,0,0,0.00,0
829,19,0,0,0,0.00,0
830,24,0,0,0,0.00,0
831,24,0,0,0,0.00,0
832,20,0,0,0,0.00,0
833,17,0,0,0,0.00,0
834,17,0,0,0,0.00,0
835,21,0,0,0,0.00,0
836,24,0,0,0,0.00,0
837,25,0,0,0,0.00,0
838,26,0,0,0,0.00,0
839,31,0,0,0,0.00,0
840,40,0,0,0,0.00,0
841,51,0,0,0,0.00,0
842,58,0,0,0,0.00,0
843,56,0,0,0,0.00,0
844,46,0,0,0,0.00,0
845,33,0,0,0,0.00,0
846,22,0,0,0,0.00,0
847,19,0,0,0,0.00,0
848,26,0,0,0,0.00,0
849,42,0,0,0,0.00,0
850,60,0,0,0,0.00,0
851,71,0,0,0,0.00,0
852,71,0,0,0,0.00,0
853,60,0,0,0,0.00,0
854,45,0,0,0,0.00,0
855,35,0,0,0,0.00,0
856,34,0,0,0,0.00,0
857,39,0,0,0,0.00,0
858,43,0,0,0,0.00,0
859,41,0,0,0,0.00,0
860,34,0,0,0,0.00,0
861,27,0,0,0,0.00,0
862,25,0,0,0,0.00,0
863,30,0,0,0,0.00,0
864,37,0,0,0,0.00,0
865,40,0,0,0,0.00,0
866,38,0,0,0,0.00,0
867,33,0,0,0,0.00,0
868,30,0,0,0,0.00,0
869,30,0,0,0,0.00,0
870,34,0,0,0,0.00,0
871,36,0,0,0,0.00,0
872,38,0,0,0,0.00,0
873,38,0,0,0,0.00,0
874,39,0,0,0,0.00,0
875,43,0,0,0,0.00,0
876,47,0,0,0,0.00,0
877,49,0,0,0,0.00,0
878,49,0,0,0,0.00,0
879,49,0,0,0,0.00,0
880,49,0,0,0,0.00,0
881,52,0,0,0,0.00,0
882,54,0,0,0,0.00,0
883,53,0,0,0,0.00,0
884,48,0,0,0,0.00,0
885,41,0,0,0,0.00,0
886,34,0,0,0,0.00,0
887,32,0,0,0,0.00,0
888,37,0,0,0,0.00,0
889,45,0,0,0,0.00,0
890,52,0,0,0,0.00,0
891,54,0,0,0,0.00,0
892,52,0,0,0,0.00,0
893,50,0,0,0,0.00,0
894,50,0,0,0,0.00,0
895,51,0,0,0,0.00,0
896,49,0,0,0,0.00,0
897,44,0,0,0,0.00,0
898,37,0,0,0,0.00,0
899,35,0,0,0,0.00,0
900,40,0,0,0,0.00,0
901,48,0,0,0,0.00,0
902,50,0,0,0,0.00,0
903,45,0,0,0,0.00,0
904,38,0,0,0,0.00,0
905,37,0,0,0,0.00,0
906,46,0,0,0,0.00,0
907,57,0,0,0,0.00,0
908,59,0,0,0,0.00,0
909,50,0,0,0,0.00,0
910,38,0,0,0,0.00,0
911,38,0,0,0,0.00,0
912,53,0,0,0,0.00,0
913,69,0,0,0,0.00,0
914,67,0,0,0,0.00,0
915,38,0,0,0,0.00,0
916,-7,0,0,0,0.00,0
917,-41,0,0,0,0.00,0
918,-46,0,0,0,0.00,0
919,-22,0,0,0,0.00,0
920,13,0,0,0,0.00,0
921,40,0,0,0,0.00,0
922,55,0,0,0,0.00,0
923,65,0,0,0,0.00,0
924,81,0,0,0,0.00,0
925,105,0,0,0,0.00,0
926,130,0,0,0,0.00,0
927,147,0,0,0,0.00,0
928,159,0,0,0,0.00,0
929,172,0,0,0,0.00,0
930,195,0,0,0,0.00,0
931,226,0,0,0,0.00,0
932,257,0,0,0,0.00,0
933,280,0,0,0,0.00,0
934,295,0,0,0,0.00,0
935,306,0,0,0,0.00,0
936,318,0,0,0,0.00,0
937,332,0,0,0,0.00,0
938,344,0,0,0,0.00,0
939,349,0,0,0,0.00,0
940,348,0,0,0,0.00,0
941,342,0,0,0,0.00,0
942,334,0,0,0,0.00,0
943,322,0,0,0,0.00,0
944,305,0,0,0,0.00,0
945,280,0,0,0,0.00,0
946,248,0,0,0,0.00,0
947,209,0,0,0,0.00,0
948,165,0,0,0,0.00,0
949,119,0,0,0,0.00,0
950,73,0,0,0,0.00,0
951,28,0,0,0,0.00,0
952,-17,0,0,0,0.00,0
953,-62,0,0,0,0.00,0
954,-104,0,0,0,0.00,0
955,-136,0,0,0,0.00,0
956,-154,0,0,0,0.00,0
957,-158,0,0,0,0.00,0
958,-160,0,0,0,0.00,0
959,-169,0,0,0,0.00,0
960,-185,0,0,0,0.00,0
961,-198,0,0,0,0.00,0
962,-195,0,0,0,0.00,0
963,-176,0,0,0,0.00,0
964,-157,0,0,0,0.00,0
965,-156,0,0,0,0.00,0
966,-175,0,0,0,0.00,0
967,-190,0,0,0,0.00,0
968,-174,0,0,0,0.00,0
969,-121,0,0,0,0.00,0
970,-58,0,0,0,0.00,0
971,-24,0,0,0,0.00,0
972,-37,0,0,0,0.00,0
973,-75,0,0,0,0.00,0
974,-94,0,0,0,0.00,0
975,-62,0,0,0,0.00,0
976,9,0,0,0,0.00,0
977,77,0,0,0,0.00,0
978,101,0,0,0,0.00,0
979,74,0,0,0,0.00,0
980,28,0,0,0,0.00,0
981,2,0,0,0,0.00,0
982,10,0,0,0,0.00,0
983,37,0,0,0,0.00,0
984,52,0,0,0,0.00,0
985,43,0,0,0,0.00,0
986,21,0,0,0,0.00,0
987,7,0,0,0,0.00,0
988,15,0,0,0,0.00,0
989,40,0,0,0,0.00,0
990,64,0,0,0,0.00,0
991,74,0,0,0,0.00,0
992,66,0,0,0,0.00,0
993,48,0,0,0,0.00,0
994,34,0,0,0,0.00,0
995,30,0,0,0,0.00,0
996,37,0,0,0,0.00,0
997,46,0,0,0,0.00,0
998,47,0,0,0,0.00,0
999,35,0,0,0,0.00,0
1000,15,0,0,0,0.00,0
1001,0,0,0,0,0.00,0
1002,1,0,0,0,0.00,0
1003,15,0,0,0,0.00,0
1004,30,0,0,0,0.00,0
1005,28,0,0,0,0.00,0
1006,7,0,0,0,0.00,0
1007,-15,0,0,0,0.00,0
1008,-14,0,0,0,0.00,0
1009,24,0,0,0,0.00,0
1010,86,0,0,0,0.00,0
1011,138,0,0,0,0.00,0
1012,151,0,0,0,0.00,0
1013,119,0,0,0,0.00,0
1014,65,0,0,0,0.00,0
1015,20,0,0,0,0.00,0
1016,6,0,0,0,0.00,0
1017,19,0,0,0,0.00,0
1018,37,0,0,0,0.00,0
1019,44,0,0,0,0.00,0
1020,37,0,0,0,0.00,0
1021,27,0,0,0,0.00,0
1022,26,0,0,0,0.00,0
1023,34,0,0,0,0.00,0
1024,38,0,0,0,0.00,0
1025,31,0,0,0,0.00,0
1026,15,0,0,0,0.00,0
1027,3,0,0,0,0.00,0
1028,7,0,0,0,0.00,0
1029,28,0,0,0,0.00,0
1030,54,0,0,0,0.00,0
1031,69,0,0,0,0.00,0
1032,68,0,0,0,0.00,0
1033,58,0,0,0,0.00,0
1034,50,0,0,0,0.00,0
1035,51,0,0,0,0.00,0
1036,56,0,0,0,0.00,0
1037,59,0,0,0,0.00,0
1038,53,0,0,0,0.00,0
1039,40,0,0,0,0.00,0
1040,25,0,0,0,0.00,0
1041,14,0,0,0,0.00,0
1042,12,0,0,0,0.00,0
1043,19,0,0,0,0.00,0
1044,34,0,0,0,0.00,0
1045,50,0,0,0,0.00,0
1046,59,0,0,0,0.00,0
1047,55,0,0,0,0.00,0
1048,41,0,0,0,0.00,0
1049,25,0,0,0,0.00,0
1050,17,0,0,0,0.00,0
1051,21,0,0,0,0.00,0
1052,29,0,0,0,0.00,0
1053,30,0,0,0,0.00,0
1054,18,0,0,0,0.00,0
1055,-2,0,0,0,0.00,0
1056,-19,0,0,0,0.00,0
1057,-25,0,0,0,0.00,0
1058,-20,0,0,0,0.00,0
1059,-14,0,0,0,0.00,0
1060,-15,0,0,0,0.00,0
1061,-23,0,0,0,0.00,0
1062,-32,0,0,0,0.00,0
1063,-33,0,0,0,0.00,0
1064,-23,0,0,0,0.00,0
1065,-8,0,0,0,0.00,0
1066,4,0,0,0,0.00,0
1067,6,0,0,0,0.00,0
1068,-3,0,0,0,0.00,0
1069,-16,0,0,0,0.00,0
1070,-28,0,0,0,0.00,0
1071,-33,0,0,0,0.00,0
1072,-31,0,0,0,0.00,0
1073,-27,0,0,0,0.00,0
1074,-25,0,0,0,0.00,0
1075,-29,0,0,0,0.00,0
1076,-35,0,0,0,0.00,0
1077,-38,0,0,0,0.00,0
1078,-36,0,0,0,0.00,0
1079,-30,0,0,0,0.00,0
1080,-28,0,0,0,0.00,0
1081,-30,0,0,0,0.00,0
1082,-33,0,0,0,0.00,0
1083,-31,0,0,0,0.00,0
1084,-19,0,0,0,0.00,0
1085,0,0,0,0,0.00,0
1086,16,0,0,0,0.00,0
1087,20,0,0,0,0.00,0
1088,10,0,0,0,0.00,0
1089,-5,0,0,0,0.00,0
1090,-16,0,0,0,0.00,0
1091,-18,0,0,0,0.00,0
1092,-15,0,0,0,0.00,0
1093,-13,0,0,0,0.00,0
1094,-16,0,0,0,0.00,0
1095,-22,0,0,0,0.00,0
1096,-26,0,0,0,0.00,0
1097,-25,0,0,0,0.00,0
1098,-21,0,0,0,0.00,0
1099,-20,0,0,0,0.00,0
1100,-24,0,0,0,0.00,0
1101,-30,0,0,0,0.00,0
1102,-32,0,0,0,0.00,0
1103,-27,0,0,0,0.00,0
1104,-18,0,0,0,0.00,0
1105,-10,0,0,0,0.00,0
1106,-8,0,0,0,0.00,0
1107,-10,0,0,0,0.00,0
1108,-12,0,0,0,0.00,0
1109,-11,0,0,0,0.00,0
1110,-6,0,0,0,0.00,0
1111,-2,0,0,0,0.00,0
1112,-2,0,0,0,0.00,0
1113,-6,0,0,0,0.00,0
1114,-10,0,0,0,0.00,0
1115,-9,0,0,0,0.00,0
1116,-5,0,0,0,0.00,0
1117,-1,0,0,0,0.00,0
1118,-1,0,0,0,0.00,0
1119,-8,0,0,0,0.00,0
1120,-15,0,0,0,0.00,0
1121,-18,0,0,0,0.00,0
1122,-17,0,0,0,0.00,0
1123,-13,0,0,0,0.00,0
1124,-12,0,0,0,0.00,0
1125,-13,0,0,0,0.00,0
1126,-15,0,0,0,0.00,0
1127,-16,0,0,0,0.00,0
1128,-16,0,0,0,0.00,0
1129,-15,0,0,0,0.00,0
1130,-13,0,0,0,0.00,0
1131,-11,0,0,0,0.00,0
1132,-8,0,0,0,0.00,0
1133,-7,0,0,0,0.00,0
1134,-10,0,0,0,0.00,0
1135,-16,0,0,0,0.00,0
1136,-20,0,0,0,0.00,0
1137,-17,0,0,0,0.00,0
1138,-7,0,0,0,0.00,0
1139,2,0,0,0,0.00,0
1140,8,0,0,0,0.00,0
1141,8,0,0,0,0.00,0
1142,10,0,0,0,0.00,0
1143,16,0,0,0,0.00,0
1144,25,0,0,0,0.00,0
1145,31,0,0,0,0.00,0
1146,29,0,0,0,0.00,0
1147,25,0,0,0,0.00,0
1148,25,0,0,0,0.00,0
1149,34,0,0,0,0.00,0
1150,44,0,0,0,0.00,0
1151,45,0,0,0,0.00,0
1152,37,0,0,0,0.00,0
1153,33,0,0,0,0.00,0
1154,51,0,0,0,0.00,0
1155,95,0,0,0,0.00,0
1156,144,0,0,0,0.00,0
1157,167,0,0,0,0.00,0
1158,142,0,0,0,0.00,0
1159,81,0,0,0,0.00,0
1160,18,0,0,0,0.00,0
1161,-10,0,0,0,0.00,0
1162,6,0,0,0,0.00,0
1163,43,0,0,0,0.00,0
1164,66,0,0,0,0.00,0
1165,54,0,0,0,0.00,0
1166,22,0,0,0,0.00,0
1167,-1,0,0,0,0.00,0
1168,8,0,0,0,0.00,0
1169,44,0,0,0,0.00,0
1170,76,0,0,0,0.00,0
1171,82,0,0,0,0.00,0
1172,62,0,0,0,0.00,0
1173,40,0,0,0,0.00,0
1174,44,0,0,0,0.00,0
1175,0,0,0,0,0.00,0
1176,0,0,0,0,0.00,0
1177,0,0,0,0,0.00,0
1178,0,0,0,0,0.00,0
1179,0,0,0,0,0.00,0
1180,0,0,0,0,0.00,0
1181,0,0,0,0,0.00,0
1182,0,0,0,0,0.00,0
1183,0,0,0,0,0.00,0
1184,0,0,0,0,0.00,0
1185,0,0,0,0,0.00,0
1186,0,0,0,0,0.00,0
1187,0,0,0,0,0.00,0
1188,0,0,0,0,0.00,0
1189,0,0,0,0,0.00,0
1190,0,0,0,0,0.00,0
1191,0,0,0,0,0.00,0
1192,0,0,0,0,0.00,0
1193,0,0,0,0,0.00,0
1194,0,0,0,0,0.00,0
1195,0,0,0,0,0.00,0
1196,0,0,0,0,0.00,0
1197,0,0,0,0,0.00,0
1198,0,0,0,0,0.00,0
1199,0,0,0,0,0.00,0
1200,0,0,0,0,0.00,0
1201,0,0,0,0,0.00,0
1202,0,0,0,0,0.00,0
1203,0,0,0,0,0.00,0
1204,0,0,0,0,0.00,0
1205,0,0,0,0,0.00,0
1206,0,0,0,0,0.00,0
1207,0,0,0,0,0.00,0
1208,0,0,0,0,0.00,0
1209,0,0,0,0,0.00,0
1210,0,0,0,0,0.00,0
1211,0,0,0,0,0.00,0
1212,0,0,0,0,0.00,0
1213,0,0,0,0,0.00,0
1214,0,0,0,0,0.00,0
1215,0,0,0,0,0.00,0
1216,0,0,0,0,0.00,0
1217,0,0,0,0,0.00,0
1218,0,0,0,0,0.00,0
1219,0,0,0,0,0.00,0
1220,0,0,0,0,0.00,0
1221,0,0,0,0,0.00,0
1222,0,0,0,0,0.00,0
1223,0,0,0,0,0.00,0
1224,0,0,0,0,0.00,0
1225,0,0,0,0,0.00,0
1226,0,0,0,0,0.00,0
1227,0,0,0,0,0.00,0
1228,0,0,0,0,0.00,0
1229,0,0,0,0,0.00,0
1230,0,0,0,0,0.00,0
1231,0,0,0,0,0.00,0
1232,-1,0,0,0,0.00,0
1233,-1,0,0,0,0.00,0
1234,0,0,0,0,0.00,0
1235,1,0,0,0,0.00,0
1236,1,0,0,0,0.00,0
1237,0,0,0,0,0.00,0
1238,-2,0,0,0,0.00,0
1239,-2,0,0,0,0.00,0
1240,1,0,0,0,0.00,0
1241,3,0,0,0,0.00,0
1242,2,0,0,0,0.00,0
1243,-2,0,0,0,0.00,0
1244,-5,0,0,0,0.00,0
1245,-3,0,0,0,0.00,0
1246,4,0,0,0,0.00,0
1247,7,0,0,0,0.00,0
1248,3,0,0,0,0.00,0
1249,-6,0,0,0,0.00,0
1250,0,0,0,0,0.00,0
1251,0,0,0,0,0.00,0
1252,0,0,0,0,0.00,0
1253,0,0,0,0,0.00,0
1254,0,0,0,0,0.00,0
1255,0,0,0,0,0.00,0
1256,0,0,0,0,0.00,0
1257,0,0,0,0,0.00,0
1258,0,0,0,0,0.00,0
1259,0,0,0,0,0.00,0
1260,0,0,0,0,0.00,0
1261,0,0,0,0,0.00,0
1262,0,0,0,0,0.00,0
1263,0,0,0,0,0.00,0
1264,0,0,0,0,0.00,0
1265,0,0,0,0,0.00,0
1266,0,0,0,0,0.00,0
1267,0,0,0,0,0.00,0
1268,0,0,0,0,0.00,0
1269,0,0,0,0,0.00,0
1270,0,0,0,0,0.00,0
1271,0,0,0,0,0.00,0
1272,0,0,0,0,0.00,0
1273,0,0,0,0,0.00,0
1274,0,0,0,0,0.00,0
1275,0,0,0,0,0.00,0
1276,0,0,0,0,0.00,0
1277,0,0,0,0,0.00,0
1278,0,0,0,0,0.00,0
1279,0,0,0,0,0.00,0
1280,0,0,0,0,0.00,0
1281,0,0,0,0,0.00,0
1282,0,0,0,0,0.00,0
1283,0,0,0,0,0.00,0
1284,0,0,0,0,0.00,0
1285,0,0,0,0,0.00,0
1286,0,0,0,0,0.00,0
1287,0,0,0,0,0.00,0
1288,0,0,0,0,0.00,0
1289,0,0,0,0,0.00,0
1290,0,0,0,0,0.00,0
1291,0,0,0,0,0.00,0
1292,0,0,0,0,0.00,0
1293,0,0,0,0,0.00,0
1294,0,0,0,0,0.00,0
1295,0,0,0,0,0.00,0
1296,0,0,0,0,0.00,0
1297,1,0,0,0,0.00,0
1298,0,0,0,0,0.00,0
1299,-1,0,0,0,0.00,0
1300,0,0,0,0,0.00,0
1301,0,0,0,0,0.00,0
1302,0,0,0,0,0.00,0
1303,0,0,0,0,0.00,0
1304,0,0,0,0,0.00,0
1305,0,0,0,0,0.00,0
1306,0,0,0,0,0.00,0
1307,0,0,0,0,0.00,0
1308,0,0,0,0,0.00,0
1309,0,0,0,0,0.00,0
1310,0,0,0,0,0.00,0
1311,0,0,0,0,0.00,0
1312,0,0,0,0,0.00,0
1313,0,0,0,0,0.00,0
1314,0,0,0,0,0.00,0
1315,0,0,0,0,0.00,0
1316,0,0,0,0,0.00,0
1317,0,0,0,0,0.00,0
1318,0,0,0,0,0.00,0
1319,0,0,0,0,0.00,0
1320,0,0,0,0,0.00,0
1321,0,0,0,0,0.00,0
1322,0,0,0,0,0.00,0
1323,0,0,0,0,0.00,0
1324,0,0,0,0,0.00,0
1325,0,0,0,0,0.00,0
1326,0,0,0,0,0.00,0
1327,0,0,0,0,0.00,0
1328,0,0,0,0,0.00,0
1329,0,0,0,0,0.00,0
1330,0,0,0,0,0.00,0
1331,0,0,0,0,0.00,0
1332,0,0,0,0,0.00,0
1333,0,0,0,0,0.00,0
1334,0,0,0,0,0.00,0
1335,0,0,0,0,0.00,0
1336,0,0,0,0,0.00,0
1337,0,0,0,0,0.00,0
1338,0,0,0,0,0.00,0
1339,0,0,0,0,0.00,0
1340,0,0,0,0,0.00,0
1341,0,0,0,0,0.00,0
1342,0,0,0,0,0.00,0
1343,0,0,0,0,0.00,0
1344,0,0,0,0,0.00,0
1345,0,0,0,0,0.00,0
1346,0,0,0,0,0.00,0
1347,0,0,0,0,0.00,0
1348,0,0,0,0,0.00,0
1349,0,0,0,0,0.00,0
1350,0,0,0,0,0.00,0
1351,0,0,0,0,0.00,0
1352,0,0,0,0,0.00,0
1353,0,0,0,0,0.00,0
1354,0,0,0,0,0.00,0
1355,0,0,0,0,0.00,0
1356,0,0,0,0,0.00,0
1357,0,0,0,0,0.00,0
1358,0,0,0,0,0.00,0
1359,0,0,0,0,0.00,0
1360,0,0,0,0,0.00,0
1361,0,0,0,0,0.00,0
1362,0,0,0,0,0.00,0
1363,0,0,0,0,0.00,0
1364,0,0,0,0,0.00,0
1365,0,0,0,0,0.00,0
1366,0,0,0,0,0.00,0
1367,0,0,0,0,0.00,0
1368,0,0,0,0,0.00,0
1369,0,0,0,0,0.00,0
1370,0,0,0,0,0.00,0
1371,0,0,0,0,0.00,0
1372,0,0,0,0,0.00,0
1373,0,0,0,0,0.00,0
1374,0,0,0,0,0.00,0
1375,0,0,0,0,0.00,0
1376,0,0,0,0,0.00,0
1377,0,0,0,0,0.00,0
1378,0,0,0,0,0.00,0
1379,0,0,0,0,0.00,0
1380,0,0,0,0,0.00,0
1381,0,0,0,0,0.00,0
1382,0,0,0,0,0.00,0
1383,0,0,0,0,0.00,0
1384,0,0,0,0,0.00,0
1385,0,0,0,0,0.00,0
1386,0,0,0,0,0.00,0
1387,0,0,0,0,0.00,0
1388,0,0,0,0,0.00,0
1389,0,0,0,0,0.00,0
1390,0,0,0,0,0.00,0
1391,0,0,0,0,0.00,0
1392,0,0,0,0,0.00,0
1393,0,0,0,0,0.00,0
1394,0,0,0,0,0.00,0
1395,0,0,0,0,0.00,0
1396,0,0,0,0,0.00,0
1397,0,0,0,0,0.00,0
1398,0,0,0,0,0.00,0
1399,0,0,0,0,0.00,0
1400,0,0,0,0,0.00,0
1401,0,0,0,0,0.00,0
1402,0,0,0,0,0.00,0
1403,0,0,0,0,0.00,0
1404,1,0,0,0,0.00,0
1405,1,0,0,0,0.00,0
1406,1,0,0,0,0.00,0
1407,-1,0,0,0,0.00,0
1408,-2,0,0,0,0.00,0
1409,0,0,0,0,0.00,0
1410,3,0,0,0,0.00,0
1411,3,0,0,0,0.00,0
1412,0,0,0,0,0.00,0
1413,-4,0,0,0,0.00,0
1414,-4,0,0,0,0.00,0
1415,1,0,0,0,0.00,0
1416,7,0,0,0,0.00,0
1417,6,0,0,0,0.00,0
1418,-3,0,0,0,0.00,0
1419,-11,0,0,0,0.00,0
1420,-7,0,0,0,0.00,0
1421,7,0,0,0,0.00,0
1422,17,0,0,0,0.00,0
1423,9,0,0,0,0.00,0
1424,-12,0,0,0,0.00,0
1425,0,0,0,0,0.00,0
1426,0,0,0,0,0.00,0
1427,0,0,0,0,0.00,0
1428,0,0,0,0,0.00,0
1429,0,0,0,0,0.00,0
1430,0,0,0,0,0.00,0
1431,0,0,0,0,0.00,0
1432,0,0,0,0,0.00,0
1433,0,0,0,0,0.00,0
1434,0,0,0,0,0.00,0
1435,0,0,0,0,0.00,0
1436,0,0,0,0,0.00,0
1437,0,0,0,0,0.00,0
1438,0,0,0,0,0.00,0
1439,0,0,0,0,0.00,0
1440,0,0,0,0,0.00,0
1441,0,0,0,0,0.00,0
1442,0,0,0,0,0.00,0
1443,0,0,0,0,0.00,0
1444,0,0,0,0,0.00,0
1445,0,0,0,0,0.00,0
1446,0,0,0,0,0.00,0
1447,0,0,0,0,0.00,0
1448,0,0,0,0,0.00,0
1449,0,0,0,0,0.00,0
1450,0,0,0,0,0.00,0
1451,0,0,0,0,0.00,0
1452,0,0,0,0,0.00,0
1453,0,0,0,0,0.00,0
1454,0,0,0,0,0.00,0
1455,0,0,0,0,0.00,0
1456,0,0,0,0,0.00,0
1457,0,0,0,0,0.00,0
1458,0,0,0,0,0.00,0
1459,0,0,0,0,0.00,0
1460,0,0,0,0,0.00,0
1461,0,0,0,0,0.00,0
1462,0,0,0,0,0.00,0
1463,0,0,0,0,0.00,0
1464,0,0,0,0,0.00,0
1465,0,0,0,0,0.00,0
1466,0,0,0,0,0.00,0
1467,0,0,0,0,0.00,0
1468,0,0,0,0,0.00,0
1469,0,0,0,0,0.00,0
1470,0,0,0,0,0.00,0
1471,0,0,0,0,0.00,0
1472,0,0,0,0,0.00,0
1473,0,0,0,0,0.00,0
1474,0,0,0,0,0.00,0
1475,0,0,0,0,0.00,0
1476,0,0,0,0,0.00,0
1477,0,0,0,0,0.00,0
1478,0,0,0,0,0.00,0
1479,0,0,0,0,0.00,0
1480,1,0,0,0,0.00,0
1481,0,0,0,0,0.00,0
1482,0,0,0,0,0.00,0
1483,-1,0,0,0,0.00,0
1484,0,0,0,0,0.00,0
1485,1,0,0,0,0.00,0
1486,1,0,0,0,0.00,0
1487,0,0,0,0,0.00,0
1488,-2,0,0,0,0.00,0
1489,-2,0,0,0,0.00,0
1490,0,0,0,0,0.00,0
1491,3,0,0,0,0.00,0
1492,3,0,0,0,0.00,0
1493,-1,0,0,0,0.00,0
1494,-4,0,0,0,0.00,0
1495,-3,0,0,0,0.00,0
1496,2,0,0,0,0.00,0
1497,7,0,0,0,0.00,0
1498,5,0,0,0,0.00,0
1499,-4,0,0,0,0.00,0
1500,-10,0,0,0,0.00,0
1501,-6,0,0,0,0.00,0
1502,7,0,0,0,0.00,0
1503,14,0,0,0,0.00,0
1504,7,0,0,0,0.00,0
1505,-11,0,0,0,0.00,0
1506,-20,0,0,0,0.00,0
1507,-7,0,0,0,0.00,0
1508,18,0,0,0,0.00,0
1509,28,0,0,0,0.00,0
1510,7,0,0,0,0.00,0
1511,-29,0,0,0,0.00,0
1512,-42,0,0,0,0.00,0
1513,-6,0,0,0,0.00,0
1514,52,0,0,0,0.00,0
1515,71,0,0,0,0.00,0
1516,-1,0,0,0,0.00,0
1517,-148,0,0,0,0.00,0
1518,-294,0,0,0,0.00,0
1519,-360,0,0,0,0.00,0
1520,-329,0,0,0,0.00,0
1521,-255,0,0,0,0.00,0
1522,-217,0,0,0,0.00,0
1523,-247,0,0,0,0.00,0
1524,-315,0,0,0,0.00,0
1525,0,0,0,0,0.00,0
1526,0,0,0,0,0.00,0
1527,0,0,0,0,0.00,0
1528,0,0,0,0,0.00,0
1529,0,0,0,0,0.00,0
1530,0,0,0,0,0.00,0
1531,0,0,0,0,0.00,0
1532,0,0,0,0,0.00,0
1533,0,0,0,0,0.00,0
1534,0,0,0,0,0.00,0
1535,0,0,0,0,0.00,0
1536,0,0,0,0,0.00,0
1537,0,0,0,0,0.00,0
1538,0,0,0,0,0.00,0
1539,0,0,0,0,0.00,0
1540,0,0,0,0,0.00,0
1541,0,0,0,0,0.00,0
1542,0,0,0,0,0.00,0
1543,0,0,0,0,0.00,0
1544,0,0,0,0,0.00,0
1545,0,0,0,0,0.00,0
1546,0,0,0,0,0.00,0
1547,0,0,0,0,0.00,0
1548,0,0,0,0,0.00,0
1549,0,0,0,0,0.00,0
1550,0,0,0,0,0.00,0
1551,0,0,0,0,0.00,0
1552,0,0,0,0,0.00,0
1553,0,0,0,0,0.00,0
1554,0,0,0,0,0.00,0
1555,0,0,0,0,0.00,0
1556,0,0,0,0,0.00,0
1557,0,0,0,0,0.00,0
1558,0,0,0,0,0.00,0
1559,0,0,0,0,0.00,0
1560,0,0,0,0,0.00,0
1561,0,0,0,0,0.00,0
1562,0,0,0,0,0.00,0
1563,0,0,0,0,0.00,0
1564,0,0,0,0,0.00,0
1565,0,0,0,0,0.00,0
1566,0,0,0,0,0.00,0
1567,0,0,0,0,0.00,0
1568,0,0,0,0,0.00,0
1569,0,0,0,0,0.00,0
1570,0,0,0,0,0.00,0
1571,0,0,0,0,0.00,0
1572,0,0,0,0,0.00,0
1573,0,0,0,0,0.00,0
1574,0,0,0,0,0.00,0
1575,0,0,0,0,0.00,0
1576,0,0,0,0,0.00,0
1577,0,0,0,0,0.00,0
1578,0,0,0,0,0.00,0
1579,0,0,0,0,0.00,0
1580,1,0,0,0,0.00,0
1581,0,0,0,0,0.00,0
1582,-1,0,0,0,0.00,0
1583,-1,0,0,0,0.00,0
1584,0,0,0,0,0.00,0
1585,2,0,0,0,0.00,0
1586,2,0,0,0,0.00,0
1587,-1,0,0,0,0.00,0
1588,-4,0,0,0,0.00,0
1589,-3,0,0,0,0.00,0
1590,2,0,0,0,0.00,0
1591,6,0,0,0,0.00,0
1592,4,0,0,0,0.00,0
1593,-4,0,0,0,0.00,0
1594,-9,0,0,0,0.00,0
1595,-4,0,0,0,0.00,0
1596,7,0,0,0,0.00,0
1597,14,0,0,0,0.00,0
1598,5,0,0,0,0.00,0
1599,-12,0,0,0,0.00,0
1600,-19,0,0,0,0.00,0
1601,-5,0,0,0,0.00,0
1602,19,0,0,0,0.00,0
1603,26,0,0,0,0.00,0
1604,3,0,0,0,0.00,0
1605,-29,0,0,0,0.00,0
1606,-34,0,0,0,0.00,0
1607,0,0,0,0,0.00,0
1608,43,0,0,0,0.00,0
1609,46,0,0,0,0.00,0
1610,-6,0,0,0,0.00,0
1611,-65,0,0,0,0.00,0
1612,-63,0,0,0,0.00,0
1613,18,0,0,0,0.00,0
1614,108,0,0,0,0.00,0
1615,100,0,0,0,0.00,0
1616,-51,0,0,0,0.00,0
1617,-272,0,0,0,0.00,0
1618,-416,0,0,0,0.00,0
1619,-386,0,0,0,0.00,0
1620,-215,0,0,0,0.00,0
1621,-42,0,0,0,0.00,0
1622,-1,0,0,0,0.00,0
1623,-117,0,0,0,0.00,0
1624,-302,0,0,0,0.00,0
1625,0,0,0,0,0.00,0
1626,0,0,0,0,0.00,0
1627,0,0,0,0,0.00,0
1628,0,0,0,0,0.00,0
1629,0,0,0,0,0.00,0
1630,0,0,0,0,0.00,0
1631,0,0,0,0,0.00,0
1632,0,0,0,0,0.00,0
1633,0,0,0,0,0.00,0
1634,0,0,0,0,0.00,0
1635,0,0,0,0,0.00,0
1636,0,0,0,0,0.00,0
1637,0,0,0,0,0.00,0
1638,0,0,0,0,0.00,0
1639,0,0,0,0,0.00,0
1640,0,0,0,0,0.00,0
1641,0,0,0,0,0.00,0
1642,0,0,0,0,0.00,0
1643,0,0,0,0,0.00,0
1644,0,0,0,0,0.00,0
1645,0,0,0,0,0.00,0
1646,0,0,0,0,0.00,0
1647,0,0,0,0,0.00,0
1648,0,0,0,0,0.00,0
1649,0,0,0,0,0.00,0
1650,0,0,0,0,0.00,0
1651,0,0,0,0,0.00,0
1652,0,0,0,0,0.00,0
1653,0,0,0,0,0.00,0
1654,0,0,0,0,0.00,0
1655,0,0,0,0,0.00,0
1656,0,0,0,0,0.00,0
1657,0,0,0,0,0.00,0
1658,0,0,0,0,0.00,0
1659,0,0,0,0,0.00,0
1660,0,0,0,0,0.00,0
1661,0,0,0,0,0.00,0
1662,0,0,0,0,0.00,0
1663,0,0,0,0,0.00,0
1664,0,0,0,0,0.00,0
1665,0,0,0,0,0.00,0
1666,0,0,0,0,0.00,0
1667,0,0,0,0,0.00,0
1668,0,0,0,0,0.00,0
1669,0,0,0,0,0.00,0
1670,0,0,0,0,0.00,0
1671,0,0,0,0,0.00,0
1672,0,0,0,0,0.00,0
1673,0,0,0,0,0.00,0
1674,0,0,0,0,0.00,0
1675,0,0,0,0,0.00,0
1676,0,0,0,0,0.00,0
1677,0,0,0,0,0.00,0
1678,0,0,0,0,0.00,0
1679,0,0,0,0,0.00,0
1680,0,0,0,0,0.00,0
1681,0,0,0,0,0.00,0
1682,0,0,0,0,0.00,0
1683,0,0,0,0,0.00,0
1684,0,0,0,0,0.00,0
1685,0,0,0,0,0.00,0
1686,0,0,0,0,0.00,0
1687,0,0,0,0,0.00,0
1688,0,0,0,0,0.00,0
1689,0,0,0,0,0.00,0
1690,0,0,0,0,0.00,0
1691,0,0,0,0,0.00,0
1692,0,0,0,0,0.00,0
1693,0,0,0,0,0.00,0
1694,0,0,0,0,0.00,0
1695,0,0,0,0,0.00,0
1696,0,0,0,0,0.00,0
1697,0,0,0,0,0.00,0
1698,0,0,0,0,0.00,0
1699,0,0,0,0,0.00,0
1700,0,0,0,0,0.00,0
1701,0,0,0,0,0.00,0
1702,0,0,0,0,0.00,0
1703,0,0,0,0,0.00,0
1704,0,0,0,0,0.00,0
1705,0,0,0,0,0.00,0
1706,0,0,0,0,0.00,0
1707,0,0,0,0,0.00,0
1708,0,0,0,0,0.00,0
1709,0,0,0,0,0.00,0
1710,0,0,0,0,0.00,0
1711,0,0,0,0,0.00,0
1712,0,0,0,0,0.00,0
1713,0,0,0,0,0.00,0
1714,0,0,0,0,0.00,0
1715,0,0,0,0,0.00,0
1716,0,0,0,0,0.00,0
1717,0,0,0,0,0.00,0
1718,0,0,0,0,0.00,0
1719,0,0,0,0,0.00,0
1720,0,0,0,0,0.00,0
1721,0,0,0,0,0.00,0
1722,0,0,0,0,0.00,0
1723,0,0,0,0,0.00,0
1724,0,0,0,0,0.00,0
1725,0,0,0,0,0.00,0
1726,0,0,0,0,0.00,0
1727,0,0,0,0,0.00,0
1728,0,0,0,0,0.00,0
1729,0,0,0,0,0.00,0
1730,0,0,0,0,0.00,0
1731,0,0,0,0,0.00,0
1732,0,0,0,0,0.00,0
1733,0,0,0,0,0.00,0
1734,0,0,0,0,0.00,0
1735,0,0,0,0,0.00,0
1736,0,0,0,0,0.00,0
1737,0,0,0,0,0.00,0
1738,0,0,0,0,0.00,0
1739,0,0,0,0,0.00,0
1740,0,0,0,0,0.00,0
1741,0,0,0,0,0.00,0
1742,0,0,0,0,0.00,0
1743,0,0,0,0,0.00,0
1744,0,0,0,0,0.00,0
1745,0,0,0,0,0.00,0
1746,0,0,0,0,0.00,0
1747,0,0,0,0,0.00,0
1748,0,0,0,0,0.00,0
1749,0,0,0,0,0.00,0
1750,0,0,0,0,0.00,0
1751,0,0,0,0,0.00,0
1752,0,0,0,0,0.00,0
1753,0,0,0,0,0.00,0
1754,0,0,0,0,0.00,0
1755,0,0,0,0,0.00,0
1756,0,0,0,0,0.00,0
1757,0,0,0,0,0.00,0
1758,0,0,0,0,0.00,0
1759,0,0,0,0,0.00,0
1760,0,0,0,0,0.00,0
1761,0,0,0,0,0.00,0
1762,0,0,0,0,0.00,0
1763,0,0,0,0,0.00,0
1764,0,0,0,0,0.00,0
1765,0,0,0,0,0.00,0
1766,0,0,0,0,0.00,0
1767,0,0,0,0,0.00,0
1768,0,0,0,0,0.00,0
1769,0,0,0,0,0.00,0
1770,0,0,0,0,0.00,0
1771,0,0,0,0,0.00,0
1772,0,0,0,0,0.00,0
1773,0,0,0,0,0.00,0
1774,0,0,0,0,0.00,0
1775,0,0,0,0,0.00,0
1776,0,0,0,0,0.00,0
1777,0,0,0,0,0.00,0
1778,0,0,0,0,0.00,0
1779,0,0,0,0,0.00,0
1780,0,0,0,0,0.00,0
1781,0,0,0,0,0.00,0
1782,0,0,0,0,0.00,0
1783,0,0,0,0,0.00,0
1784,0,0,0,0,0.00,0
1785,0,0,0,0,0.00,0
1786,0,0,0,0,0.00,0
1787,-1,0,0,0,0.00,0
1788,-1,0,0,0,0.00,0
1789,0,0,0,0,0.00,0
1790,1,0,0,0,0.00,0
1791,1,0,0,0,0.00,0
1792,-1,0,0,0,0.00,0
1793,-2,0,0,0,0.00,0
1794,-1,0,0,0,0.00,0
1795,1,0,0,0,0.00,0
1796,3,0,0,0,0.00,0
1797,2,0,0,0,0.00,0
1798,-2,0,0,0,0.00,0
1799,-5,0,0,0,0.00,0
1800,-2,0,0,0,0.00,0
1801,4,0,0,0,0.00,0
1802,7,0,0,0,0.00,0
1803,2,0,0,0,0.00,0
1804,-7,0,0,0,0.00,0
1805,-10,0,0,0,0.00,0
1806,-2,0,0,0,0.00,0
1807,11,0,0,0,0.00,0
1808,14,0,0,0,0.00,0
1809,2,0,0,0,0.00,0
1810,-16,0,0,0,0.00,0
1811,-20,0,0,0,0.00,0
1812,-1,0,0,0,0.00,0
1813,25,0,0,0,0.00,0
1814,30,0,0,0,0.00,0
1815,-1,0,0,0,0.00,0
1816,-52,0,0,0,0.00,0
1817,-102,0,0,0,0.00,0
1818,-148,0,0,0,0.00,0
1819,-217,0,0,0,0.00,0
1820,-335,0,0,0,0.00,0
1821,-476,0,0,0,0.00,0
1822,-549,0,0,0,0.00,0
1823,-455,0,0,0,0.00,0
1824,-177,0,0,0,0.00,0
1825,176,0,0,0,0.00,0
1826,422,0,0,0,0.00,0
1827,424,0,0,0,0.00,0
1828,190,0,0,0,0.00,0
1829,-131,0,0,0,0.00,0
1830,-359,0,0,0,0.00,0
1831,-401,0,0,0,0.00,0
1832,-304,0,0,0,0.00,0
1833,-187,0,0,0,0.00,0
1834,-145,0,0,0,0.00,0
1835,-183,0,0,0,0.00,0
1836,-240,0,0,0,0.00,0
1837,-254,0,0,0,0.00,0
1838,-221,0,0,0,0.00,0
1839,-180,0,0,0,0.00,0
1840,-167,0,0,0,0.00,0
1841,-186,0,0,0,0.00,0
1842,-207,0,0,0,0.00,0
1843,-204,0,0,0,0.00,0
1844,-179,0,0,0,0.00,0
1845,-154,0,0,0,0.00,0
1846,-150,0,0,0,0.00,0
1847,-166,0,0,0,0.00,0
1848,-182,0,0,0,0.00,0
1849,-183,0,0,0,0.00,0
1850,-170,0,0,0,0.00,0
1851,-155,0,0,0,0.00,0
1852,-148,0,0,0,0.00,0
1853,-148,0,0,0,0.00,0
1854,-145,0,0,0,0.00,0
1855,-138,0,0,0,0.00,0
1856,-129,0,0,0,0.00,0
1857,-129,0,0,0,0.00,0
1858,-138,0,0,0,0.00,0
1859,-148,0,0,0,0.00,0
1860,-145,0,0,0,0.00,0
1861,-128,0,0,0,0.00,0
1862,-106,0,0,0,0.00,0
1863,-96,0,0,0,0.00,0
1864,-102,0,0,0,0.00,0
1865,-115,0,0,0,0.00,0
1866,-115,0,0,0,0.00,0
1867,-96,0,0,0,0.00,0
1868,-68,0,0,0,0.00,0
1869,-57,0,0,0,0.00,0
1870,-75,0,0,0,0.00,0
1871,-117,0,0,0,0.00,0
1872,-156,0,0,0,0.00,0
1873,-172,0,0,0,0.00,0
1874,-157,0,0,0,0.00,0
1875,-129,0,0,0,0.00,0
1876,-108,0,0,0,0.00,0
1877,-101,0,0,0,0.00,0
1878,-104,0,0,0,0.00,0
1879,-101,0,0,0,0.00,0
1880,-87,0,0,0,0.00,0
1881,-66,0,0,0,0.00,0
1882,-46,0,0,0,0.00,0
1883,-35,0,0,0,0.00,0
1884,-30,0,0,0,0.00,0
1885,-25,0,0,0,0.00,0
1886,-18,0,0,0,0.00,0
1887,-8,0,0,0,0.00,0
1888,4,0,0,0,0.00,0
1889,17,0,0,0,0.00,0
1890,33,0,0,0,0.00,0
1891,51,0,0,0,0.00,0
1892,69,0,0,0,0.00,0
1893,86,0,0,0,0.00,0
1894,103,0,0,0,0.00,0
1895,121,0,0,0,0.00,0
1896,141,0,0,0,0.00,0
1897,162,0,0,0,0.00,0
1898,180,0,0,0,0.00,0
1899,194,0,0,0,0.00,0
1900,207,0,0,0,0.00,0
1901,225,0,0,0,0.00,0
1902,249,0,0,0,0.00,0
1903,280,0,0,0,0.00,0
1904,310,0,0,0,0.00,0
1905,337,0,0,0,0.00,0
1906,356,0,0,0,0.00,0
1907,368,0,0,0,0.00,0
1908,377,0,0,0,0.00,0
1909,383,0,0,0,0.00,0
1910,388,0,0,0,0.00,0
1911,391,0,0,0,0.00,0
1912,392,0,0,0,0.00,0
1913,392,0,0,0,0.00,0
1914,388,0,0,0,0.00,0
1915,378,0,0,0,0.00,0
1916,360,0,0,0,0.00,0
1917,331,0,0,0,0.00,0
1918,293,0,0,0,0.00,0
1919,249,0,0,0,0.00,0
1920,202,0,0,0,0.00,0
1921,156,0,0,0,0.00,0
1922,112,0,0,0,0.00,0
1923,67,0,0,0,0.00,0
1924,22,0,0,0,0.00,0
1925,-23,0,0,0,0.00,0
1926,-62,0,0,0,0.00,0
1927,-91,0,0,0,0.00,0
1928,-108,0,0,0,0.00,0
1929,-116,0,0,0,0.00,0
1930,-119,0,0,0,0.00,0
1931,-122,0,0,0,0.00,0
1932,-128,0,0,0,0.00,0
1933,-136,0,0,0,0.00,0
1934,-145,0,0,0,0.00,0
1935,-152,0,0,0,0.00,0
1936,-156,0,0,0,0.00,0
1937,-154,0,0,0,0.00,0
1938,-146,0,0,0,0.00,0
1939,-136,0,0,0,0.00,0
1940,-125,0,0,0,0.00,0
1941,-116,0,0,0,0.00,0
1942,-111,0,0,0,0.00,0
1943,-108,0,0,0,0.00,0
1944,-106,0,0,0,0.00,0
1945,-104,0,0,0,0.00,0
1946,-100,0,0,0,0.00,0
1947,-97,0,0,0,0.00,0
1948,-92,0,0,0,0.00,0
1949,-87,0,0,0,0.00,0
1950,-82,0,0,0,0.00,0
1951,-78,0,0,0,0.00,0
1952,-76,0,0,0,0.00,0
1953,-75,0,0,0,0.00,0
1954,-75,0,0,0,0.00,0
1955,-74,0,0,0,0.00,0
1956,-73,0,0,0,0.00,0
1957,-73,0,0,0,0.00,0
1958,-76,0,0,0,0.00,0
1959,-81,0,0,0,0.00,0
1960,-86,0,0,0,0.00,0
1961,-88,0,0,0,0.00,0
1962,-87,0,0,0,0.00,0
1963,-85,0,0,0,0.00,0
1964,-84,0,0,0,0.00,0
1965,-83,0,0,0,0.00,0
1966,-83,0,0,0,0.00,0
1967,-85,0,0,0,0.00,0
1968,-89,0,0,0,0.00,0
1969,-95,0,0,0,0.00,0
1970,-101,0,0,0,0.00,0
1971,-106,0,0,0,0.00,0
1972,-107,0,0,0,0.00,0
1973,-105,0,0,0,0.00,0
1974,-102,0,0,0,0.00,0
1975,-101,0,0,0,0.00,0
1976,-101,0,0,0,0.00,0
1977,-101,0,0,0,0.00,0
1978,-98,0,0,0,0.00,0
1979,-93,0,0,0,0.00,0
1980,-86,0,0,0,0.00,0
1981,-80,0,0,0,0.00,0
1982,-78,0,0,0,0.00,0
1983,-82,0,0,0,0.00,0
1984,-88,0,0,0,0.00,0
1985,-95,0,0,0,0.00,0
1986,-97,0,0,0,0.00,0
1987,-93,0,0,0,0.00,0
1988,-85,0,0,0,0.00,0
1989,-77,0,0,0,0.00,0
1990,-74,0,0,0,0.00,0
1991,-77,0,0,0,0.00,0
1992,-85,0,0,0,0.00,0
1993,-93,0,0,0,0.00,0
1994,-96,0,0,0,0.00,0
1995,-91,0,0,0,0.00,0
1996,-80,0,0,0,0.00,0
1997,-67,0,0,0,0.00,0
1998,-57,0,0,0,0.00,0
1999,-53,0,0,0,0.00,0
2000,-53,0,0,0,0.00,0
2001,-57,0,0,0,0.00,0
2002,-61,0,0,0,0.00,0
2003,-64,0,0,0,0.00,0
2004,-64,0,0,0,0.00,0
2005,-62,0,0,0,0.00,0
2006,-58,0,0,0,0.00,0
2007,-53,0,0,0,0.00,0
2008,-51,0,0,0,0.00,0
2009,-51,0,0,0,0.00,0
2010,-54,0,0,0,0.00,0
2011,-59,0,0,0,0.00,0
2012,-62,0,0,0,0.00,0
2013,-64,0,0,0,0.00,0
2014,-61,0,0,0,0.00,0
2015,-51,0,0,0,0.00,0
2016,-34,0,0,0,0.00,0
2017,-12,0,0,0,0.00,0
2018,8,0,0,0,0.00,0
2019,15,0,0,0,0.00,0
2020,5,0,0,0,0.00,0
2021,-21,0,0,0,0.00,0
2022,-53,0,0,0,0.00,0
2023,-77,0,0,0,0.00,0
2024,-84,0,0,0,0.00,0
2025,-74,0,0,0,0.00,0
2026,-56,0,0,0,0.00,0
2027,-38,0,0,0,0.00,0
2028,-27,0,0,0,0.00,0
2029,-24,0,0,0,0.00,0
2030,-22,0,0,0,0.00,0
2031,-19,0,0,0,0.00,0
2032,-14,0,0,0,0.00,0
2033,-8,0,0,0,0.00,0
2034,0,0,0,0,0.00,0
2035,17,0,0,0,0.00,0
2036,47,0,0,0,0.00,0
2037,86,0,0,0,0.00,0
2038,123,0,0,0,0.00,0
2039,145,0,0,0,0.00,0
2040,142,0,0,0,0.00,0
2041,119,0,0,0,0.00,0
2042,86,0,0,0,0.00,0
2043,59,0,0,0,0.00,0
2044,40,0,0,0,0.00,0
2045,28,0,0,0,0.00,0
2046,12,0,0,0,0.00,0
2047,-13,0,0,0,0.00,0
2048,-44,0,0,0,0.00,0
2049,-69,0,0,0,0.00,0
2050,-79,0,0,0,0.00,0
2051,-70,0,0,0,0.00,0
2052,-49,0,0,0,0.00,0
2053,-29,0,0,0,0.00,0
2054,-21,0,0,0,0.00,0
2055,-24,0,0,0,0.00,0
2056,-29,0,0,0,0.00,0
2057,-24,0,0,0,0.00,0
2058,-7,0,0,0,0.00,0
2059,4,0,0,0,0.00,0
2060,-16,0,0,0,0.00,0
2061,-84,0,0,0,0.00,0
2062,-185,0,0,0,0.00,0
2063,-257,0,0,0,0.00,0
2064,-205,0,0,0,0.00,0
2065,58,0,0,0,0.00,0
2066,550,0,0,0,0.00,0
2067,1189,0,0,0,0.00,0
2068,1792,0,0,0,0.00,0
2069,2148,0,0,0,0.00,0
2070,2113,0,0,0,0.00,0
2071,1681,0,0,0,0.00,0
2072,1002,0,0,0,0.00,0
2073,304,0,0,0,0.00,0
2074,-211,0,0,0,0.00,0
2075,-457,0,0,0,0.00,0
2076,-476,0,0,0,0.00,0
2077,-388,0,0,0,0.00,0
2078,-303,0,0,0,0.00,0
2079,-270,0,0,0,0.00,0
2080,-274,0,0,0,0.00,0
2081,-276,0,0,0,0.00,0
2082,-259,0,0,0,0.00,0
2083,-232,0,0,0,0.00,0
2084,-215,0,0,0,0.00,0
2085,-215,0,0,0,0.00,0
2086,-223,0,0,0,0.00,0
2087,-222,0,0,0,0.00,0
2088,-209,0,0,0,0.00,0
2089,-191,0,0,0,0.00,0
2090,-177,0,0,0,0.00,0
2091,-171,0,0,0,0.00,0
2092,-167,0,0,0,0.00,0
2093,-158,0,0,0,0.00,0
2094,-145,0,0,0,0.00,0
2095,-130,0,0,0,0.00,0
2096,-118,0,0,0,0.00,0
2097,-107,0,0,0,0.00,0
2098,-93,0,0,0,0.00,0
2099,-78,0,0,0,0.00,0
2100,-64,0,0,0,0.00,0
2101,-56,0,0,0,0.00,0
2102,-54,0,0,0,0.00,0
2103,-52,0,0,0,0.00,0
2104,-44,0,0,0,0.00,0
2105,-27,0,0,0,0.00,0
2106,-6,0,0,0,0.00,0
2107,15,0,0,0,0.00,0
2108,31,0,0,0,0.00,0
2109,43,0,0,0,0.00,0
2110,55,0,0,0,0.00,0
2111,72,0,0,0,0.00,0
2112,95,0,0,0,0.00,0
2113,121,0,0,0,0.00,0
2114,148,0,0,0,0.00,0
2115,174,0,0,0,0.00,0
2116,195,0,0,0,0.00,0
2117,212,0,0,0,0.00,0
2118,226,0,0,0,0.00,0
2119,238,0,0,0,0.00,0
2120,250,0,0,0,0.00,0
2121,264,0,0,0,0.00,0
2122,279,0,0,0,0.00,0
2123,294,0,0,0,0.00,0
2124,306,0,0,0,0.00,0
2125,313,0,0,0,0.00,0
2126,315,0,0,0,0.00,0
2127,313,0,0,0,0.00,0
2128,308,0,0,0,0.00,0
2129,297,0,0,0,0.00,0
2130,281,0,0,0,0.00,0
2131,257,0,0,0,0.00,0
2132,225,0,0,0,0.00,0
2133,187,0,0,0,0.00,0
2134,144,0,0,0,0.00,0
2135,99,0,0,0,0.00,0
2136,54,0,0,0,0.00,0
2137,10,0,0,0,0.00,0
2138,-32,0,0,0,0.00,0
2139,-73,0,0,0,0.00,0
2140,-107,0,0,0,0.00,0
2141,-133,0,0,0,0.00,0
2142,-149,0,0,0,0.00,0
2143,-157,0,0,0,0.00,0
2144,-162,0,0,0,0.00,0
2145,-166,0,0,0,0.00,0
2146,-172,0,0,0,0.00,0
2147,-180,0,0,0,0.00,0
2148,-184,0,0,0,0.00,0
2149,-183,0,0,0,0.00,0
2150,-178,0,0,0,0.00,0
2151,-169,0,0,0,0.00,0
2152,-160,0,0,0,0.00,0
2153,-155,0,0,0,0.00,0
2154,-152,0,0,0,0.00,0
2155,-149,0,0,0,0.00,0
2156,-144,0,0,0,0.00,0
2157,-137,0,0,0,0.00,0
2158,-129,0,0,0,0.00,0
2159,-122,0,0,0,0.00,0
2160,-115,0,0,0,0.00,0
2161,-109,0,0,0,0.00,0
2162,-102,0,0,0,0.00,0
2163,-96,0,0,0,0.00,0
2164,-94,0,0,0,0.00,0
2165,-95,0,0,0,0.00,0
2166,-98,0,0,0,0.00,0
2167,-99,0,0,0,0.00,0
2168,-96,0,0,0,0.00,0
2169,-90,0,0,0,0.00,0
2170,-84,0,0,0,0.00,0
2171,-79,0,0,0,0.00,0
2172,-75,0,0,0,0.00,0
2173,-69,0,0,0,0.00,0
2174,-63,0,0,0,0.00,0
2175,-56,0,0,0,0.00,0
2176,-51,0,0,0,0.00,0
2177,-51,0,0,0,0.00,0
2178,-55,0,0,0,0.00,0
2179,-61,0,0,0,0.00,0
2180,-66,0,0,0,0.00,0
2181,-68,0,0,0,0.00,0
2182,-70,0,0,0,0.00,0
2183,-71,0,0,0,0.00,0
2184,-71,0,0,0,0.00,0
2185,-67,0,0,0,0.00,0
2186,-59,0,0,0,0.00,0
2187,-49,0,0,0,0.00,0
2188,-42,0,0,0,0.00,0
2189,-42,0,0,0,0.00,0
2190,-46,0,0,0,0.00,0
2191,-50,0,0,0,0.00,0
2192,-47,0,0,0,0.00,0
2193,-40,0,0,0,0.00,0
2194,-32,0,0,0,0.00,0
2195,-31,0,0,0,0.00,0
2196,-38,0,0,0,0.00,0
2197,-46,0,0,0,0.00,0
2198,-50,0,0,0,0.00,0
2199,-46,0,0,0,0.00,0
2200,-37,0,0,0,0.00,0
2201,-29,0,0,0,0.00,0
2202,-24,0,0,0,0.00,0
2203,-22,0,0,0,0.00,0
2204,-18,0,0,0,0.00,0
2205,-11,0,0,0,0.00,0
2206,-5,0,0,0,0.00,0
2207,-3,0,0,0,0.00,0
2208,-8,0,0,0,0.00,0
2209,-13,0,0,0,0.00,0
2210,-14,0,0,0,0.00,0
2211,-6,0,0,0,0.00,0
2212,5,0,0,0,0.00,0
2213,11,0,0,0,0.00,0
2214,10,0,0,0,0.00,0
2215,3,0,0,0,0.00,0
2216,-1,0,0,0,0.00,0
2217,3,0,0,0,0.00,0
2218,13,0,0,0,0.00,0
2219,21,0,0,0,0.00,0
2220,23,0,0,0,0.00,0
2221,23,0,0,0,0.00,0
2222,26,0,0,0,0.00,0
2223,38,0,0,0,0.00,0
2224,56,0,0,0,0.00,0
2225,73,0,0,0,0.00,0
2226,84,0,0,0,0.00,0
2227,91,0,0,0,0.00,0
2228,101,0,0,0,0.00,0
2229,120,0,0,0,0.00,0
2230,148,0,0,0,0.00,0
2231,175,0,0,0,0.00,0
2232,189,0,0,0,0.00,0
2233,186,0,0,0,0.00,0
2234,171,0,0,0,0.00,0
2235,150,0,0,0,0.00,0
2236,128,0,0,0,0.00,0
2237,106,0,0,0,0.00,0
2238,78,0,0,0,0.00,0
2239,45,0,0,0,0.00,0
2240,10,0,0,0,0.00,0
2241,-20,0,0,0,0.00,0
2242,-35,0,0,0,0.00,0
2243,-34,0,0,0,0.00,0
2244,-21,0,0,0,0.00,0
2245,-5,0,0,0,0.00,0
2246,7,0,0,0,0.00,0
2247,9,0,0,0,0.00,0
2248,6,0,0,0,0.00,0
2249,6,0,0,0,0.00,0
2250,16,0,0,0,0.00,0
2251,34,0,0,0,0.00,0
2252,41,0,0,0,0.00,0
2253,16,0,0,0,0.00,0
2254,-53,0,0,0,0.00,0
2255,-147,0,0,0,0.00,0
2256,-204,0,0,0,0.00,0
2257,-136,0,0,0,0.00,0
2258,134,0,0,0,0.00,0
2259,621,0,0,0,0.00,0
2260,1243,0,0,0,0.00,0
2261,1828,0,0,0,0.00,0
2262,2168,0,0,0,0.00,0
2263,2119,0,0,0,0.00,0
2264,1673,0,0,0,0.00,0
2265,977,0,0,0,0.00,0
2266,262,0,0,0,0.00,0
2267,-259,0,0,0,0.00,0
2268,-496,0,0,0,0.00,0
2269,-493,0,0,0,0.00,0
2270,-380,0,0,0,0.00,0
2271,-277,0,0,0,0.00,0
2272,-235,0,0,0,0.00,0
2273,-237,0,0,0,0.00,0
2274,-241,0,0,0,0.00,0
2275,-223,0,0,0,0.00,0
2276,-193,0,0,0,0.00,0
2277,-173,0,0,0,0.00,0
2278,-174,0,0,0,0.00,0
2279,-186,0,0,0,0.00,0
2280,-189,0,0,0,0.00,0
2281,-175,0,0,0,0.00,0
2282,-150,0,0,0,0.00,0
2283,-130,0,0,0,0.00,0
2284,-120,0,0,0,0.00,0
2285,-117,0,0,0,0.00,0
2286,-114,0,0,0,0.00,0
2287,-105,0,0,0,0.00,0
2288,-93,0,0,0,0.00,0
2289,-83,0,0,0,0.00,0
2290,-76,0,0,0,0.00,0
2291,-70,0,0,0,0.00,0
2292,-64,0,0,0,0.00,0
2293,-54,0,0,0,0.00,0
2294,-41,0,0,0,0.00,0
2295,-28,0,0,0,0.00,0
2296,-16,0,0,0,0.00,0
2297,-6,0,0,0,0.00,0
2298,4,0,0,0,0.00,0
2299,13,0,0,0,0.00,0
2300,25,0,0,60,0.00,0
2301,41,0,0,60,0.00,0
2302,61,0,0,60,0.00,0
2303,83,0,0,60,0.00,0
2304,106,0,0,60,0.00,0
2305,128,0,0,60,0.00,0
2306,150,0,0,60,0.00,0
2307,172,0,0,60,0.00,0
2308,195,0,0,60,0.00,0
2309,216,0,0,60,0.00,0
2310,234,0,0,60,0.00,0
2311,251,0,0,60,0.00,0
2312,268,0,0,60,0.00,0
2313,285,0,0,60,0.00,0
2314,301,0,0,60,0.00,0
2315,314,0,0,60,0.00,0
2316,323,0,0,60,0.00,0
2317,328,0,0,60,0.00,0
2318,331,0,0,60,0.00,0
2319,333,0,0,60,0.00,0
2320,331,0,0,60,0.00,0
2321,322,0,0,60,0.00,0
2322,304,0,0,60,0.00,0
2323,276,0,0,60,0.00,0
2324,240,0,0,60,0.00,0
2325,197,0,0,60,0.00,0
2326,150,0,0,60,0.00,0
2327,99,0,0,60,0.00,0
2328,50,0,0,60,0.00,0
2329,3,0,0,60,0.00,0
2330,-38,0,0,60,0.00,0
2331,-75,0,0,60,0.00,0
2332,-108,0,0,60,0.00,0
2333,-139,0,0,60,0.00,0
2334,-166,0,0,60,0.00,0
2335,-187,0,0,60,0.00,0
2336,-198,0,0,60,0.00,0
2337,-201,0,0,60,0.00,0
2338,-200,0,0,60,0.00,0
2339,-198,0,0,60,0.00,0
2340,-196,0,0,60,0.00,0
2341,-196,0,0,60,0.00,0
2342,-194,0,0,60,0.00,0
2343,-189,0,0,60,0.00,0
2344,-182,0,0,60,0.00,0
2345,-174,0,0,60,0.00,0
2346,-167,0,0,60,0.00,0
2347,-162,0,0,60,0.00,0
2348,-157,0,0,60,0.00,0
2349,-152,0,0,60,0.00,0
2350,-147,0,0,60,0.00,0
2351,-141,0,0,60,0.00,0
2352,-134,0,0,60,0.00,0
2353,-127,0,0,60,0.00,0
2354,-121,0,0,60,0.00,0
2355,-116,0,0,60,0.00,0
2356,-112,0,0,60,0.00,0
2357,-109,0,0,60,0.00,0
2358,-105,0,0,60,0.00,0
2359,-101,0,0,60,0.00,0
2360,-97,0,0,60,0.00,0
2361,-93,0,0,60,0.00,0
2362,-90,0,0,60,0.00,0
2363,-90,0,0,60,0.00,0
2364,-91,0,0,60,0.00,0
2365,-94,0,0,60,0.00,0
2366,-96,0,0,60,0.00,0
2367,-95,0,0,60,0.00,0
2368,-92,0,0,60,0.00,0
2369,-89,0,0,60,0.00,0
2370,-88,0,0,60,0.00,0
2371,-90,0,0,60,0.00,0
2372,-92,0,0,60,0.00,0
2373,-93,0,0,60,0.00,0
2374,-91,0,0,60,0.00,0
2375,-87,0,0,60,0.00,0
2376,-83,0,0,60,0.00,0
2377,-83,0,0,60,0.00,0
2378,-85,0,0,60,0.00,0
2379,-88,0,0,60,0.00,0
2380,-89,0,0,60,0.00,0
2381,-88,0,0,60,0.00,0
2382,-83,0,0,60,0.00,0
2383,-79,0,0,60,0.00,0
2384,-76,0,0,60,0.00,0
2385,-74,0,0,60,0.00,0
2386,-73,0,0,60,0.00,0
2387,-72,0,0,60,0.00,0
2388,-70,0,0,60,0.00,0
2389,-68,0,0,60,0.00,0
2390,-65,0,0,60,0.00,0
2391,-62,0,0,60,0.00,0
2392,-58,0,0,60,0.00,0
2393,-57,0,0,60,0.00,0
2394,-58,0,0,60,0.00,0
2395,-60,0,0,60,0.00,0
2396,-62,0,0,60,0.00,0
2397,-60,0,0,60,0.00,0
2398,-55,0,0,60,0.00,0
2399,-49,0,0,60,0.00,0
2400,-45,0,0,60,0.00,0
2401,-43,0,0,60,0.00,0
2402,-39,0,0,60,0.00,0
2403,-34,0,0,60,0.00,0
2404,-28,0,0,60,0.00,0
2405,-26,0,0,60,0.00,0
2406,-27,0,0,60,0.00,0
2407,-28,0,0,60,0.00,0
2408,-21,0,0,60,0.00,0
2409,-5,0,0,60,0.00,0
2410,18,0,0,60,0.00,0
2411,38,0,0,60,0.00,0
2412,46,0,0,60,0.00,0
2413,42,0,0,60,0.00,0
2414,37,0,0,60,0.00,0
2415,45,0,0,60,0.00,0
2416,71,0,0,60,0.00,0
2417,106,0,0,60,0.00,0
2418,134,0,0,60,0.00,0
2419,143,0,0,60,0.00,0
2420,133,0,0,60,0.00,0
2421,111,0,0,60,0.00,0
2422,87,0,0,60,0.00,0
2423,63,0,0,60,0.00,0
2424,37,0,0,60,0.00,0
2425,10,0,0,60,0.00,0
2426,-17,0,0,60,0.00,0
2427,-41,0,0,60,0.00,0
2428,-63,0,0,60,0.00,0
2429,-81,0,0,60,0.00,0
2430,-93,0,0,60,0.00,0
2431,-91,0,0,60,0.00,0
2432,-73,0,0,60,0.00,0
2433,-47,0,0,60,0.00,0
2434,-32,0,0,60,0.00,0
2435,-37,0,0,60,0.00,0
2436,-51,0,0,60,0.00,0
2437,-49,0,0,60,0.00,0
2438,-21,0,0,60,0.00,0
2439,11,0,0,60,0.00,0
2440,0,0,0,60,0.00,0
2441,-84,0,0,60,0.00,0
2442,-212,0,0,60,0.00,0
2443,-292,0,0,60,0.00,0
2444,-212,0,0,60,0.00,0
2445,92,0,0,60,0.00,0
2446,594,0,0,60,0.00,0
2447,1183,0,0,60,0.00,0
2448,1708,0,0,60,0.00,0
2449,2033,0,0,60,0.00,0
2450,2071,0,0,60,0.00,0
2451,1809,0,0,60,0.00,0
2452,1304,0,0,60,0.00,0
2453,681,0,0,60,0.00,0
2454,100,0,0,60,0.00,0
2455,-303,0,0,60,0.00,0
2456,-470,0,0,60,0.00,0
2457,-447,0,0,60,0.00,0
2458,-343,0,0,60,0.00,0
2459,-267,0,0,60,0.00,0
2460,-262,0,0,60,0.00,0
2461,-305,0,0,60,0.00,0
2462,-343,0,0,60,0.00,0
2463,-344,0,0,60,0.00,0
2464,-319,0,0,60,0.00,0
2465,-297,0,0,60,0.00,0
2466,-295,0,0,60,0.00,0
2467,-307,0,0,60,0.00,0
2468,-311,0,0,60,0.00,0
2469,-298,0,0,60,0.00,0
2470,-273,0,0,60,0.00,0
2471,-252,0,0,60,0.00,0
2472,-242,0,0,60,0.00,0
2473,-238,0,0,60,0.00,0
2474,-234,0,0,60,0.00,0
2475,-225,0,0,61,0.00,0
2476,-215,0,0,61,0.00,0
2477,-207,0,0,61,0.00,0
2478,-201,0,0,61,0.00,0
2479,-193,0,0,61,0.00,0
2480,-180,0,0,61,0.00,0
2481,-162,0,0,61,0.00,0
2482,-143,0,0,61,0.00,0
2483,-127,0,0,61,0.00,0
2484,-113,0,0,61,0.00,0
2485,-100,0,0,61,0.00,0
2486,-86,0,0,61,0.00,0
2487,-71,0,0,61,0.00,0
2488,-56,0,0,61,0.00,0
2489,-42,0,0,61,0.00,0
2490,-25,0,0,61,0.00,0
2491,-6,0,0,61,0.00,0
2492,17,0,0,61,0.00,0
2493,41,0,0,61,0.00,0
2494,65,0,0,61,0.00,0
2495,88,0,0,61,0.00,0
2496,109,0,0,61,0.00,0
2497,131,0,0,61,0.00,0
2498,153,0,0,61,0.00,0
2499,176,0,0,61,0.00,0
2500,199,0,0,61,0.00,0
2501,218,0,0,61,0.00,0
2502,233,0,0,61,0.00,0
2503,240,0,0,61,0.00,0
2504,243,0,0,61,0.00,0
2505,244,0,0,61,0.00,0
2506,245,0,0,61,0.00,0
2507,246,0,0,61,0.00,0
2508,241,0,0,61,0.00,0
2509,225,0,0,61,0.00,0
2510,196,0,0,61,0.00,0
2511,156,0,0,61,0.00,0
2512,109,0,0,61,0.00,0
2513,63,0,0,61,0.00,0
2514,18,0,0,61,0.00,0
2515,-26,0,0,61,0.00,0
2516,-70,0,0,61,0.00,0
2517,-113,0,0,61,0.00,0
2518,-153,0,0,61,0.00,0
2519,-186,0,0,61,0.00,0
2520,-211,0,0,61,0.00,0
2521,-231,0,0,61,0.00,0
2522,-246,0,0,61,0.00,0
2523,-258,0,0,61,0.00,0
2524,-267,0,0,61,0.00,0
2525,-270,0,0,61,0.00,0
2526,-269,0,0,61,0.00,0
2527,-265,0,0,61,0.00,0
2528,-262,0,0,61,0.00,0
2529,-260,0,0,61,0.00,0
2530,-259,0,0,61,0.00,0
2531,-254,0,0,61,0.00,0
2532,-246,0,0,61,0.00,0
2533,-236,0,0,61,0.00,0
2534,-226,0,0,61,0.00,0
2535,-219,0,0,61,0.00,0
2536,-214,0,0,61,0.00,0
2537,-208,0,0,61,0.00,0
2538,-201,0,0,61,0.00,0
2539,-192,0,0,61,0.00,0
2540,-184,0,0,61,0.00,0
2541,-176,0,0,61,0.00,0
2542,-168,0,0,61,0.00,0
2543,-160,0,0,61,0.00,0
2544,-149,0,0,61,0.00,0
2545,-137,0,0,61,0.00,0
2546,-126,0,0,61,0.00,0
2547,-121,0,0,61,0.00,0
2548,-120,0,0,61,0.00,0
2549,-123,0,0,61,0.00,0
2550,-125,0,0,61,0.00,0
2551,-123,0,0,61,0.00,0
2552,-116,0,0,61,0.00,0
2553,-106,0,0,61,0.00,0
2554,-98,0,0,61,0.00,0
2555,-95,0,0,61,0.00,0
2556,-97,0,0,61,0.00,0
2557,-99,0,0,61,0.00,0
2558,-100,0,0,61,0.00,0
2559,-98,0,0,61,0.00,0
2560,-95,0,0,61,0.00,0
2561,-93,0,0,61,0.00,0
2562,-94,0,0,61,0.00,0
2563,-96,0,0,61,0.00,0
2564,-100,0,0,61,0.00,0
2565,-102,0,0,61,0.00,0
2566,-103,0,0,61,0.00,0
2567,-100,0,0,61,0.00,0
2568,-96,0,0,61,0.00,0
2569,-91,0,0,61,0.00,0
2570,-87,0,0,61,0.00,0
2571,-85,0,0,61,0.00,0
2572,-86,0,0,61,0.00,0
2573,-90,0,0,61,0.00,0
2574,-94,0,0,61,0.00,0
2575,-95,0,0,61,0.00,0
2576,-92,0,0,61,0.00,0
2577,-86,0,0,61,0.00,0
2578,-79,0,0,61,0.00,0
2579,-75,0,0,61,0.00,0
2580,-73,0,0,61,0.00,0
2581,-72,0,0,61,0.00,0
2582,-69,0,0,61,0.00,0
2583,-65,0,0,61,0.00,0
2584,-62,0,0,61,0.00,0
2585,-59,0,0,61,0.00,0
2586,-58,0,0,61,0.00,0
2587,-56,0,0,61,0.00,0
2588,-51,0,0,61,0.00,0
2589,-45,0,0,61,0.00,0
2590,-39,0,0,61,0.00,0
2591,-37,0,0,61,0.00,0
2592,-38,0,0,61,0.00,0
2593,-42,0,0,61,0.00,0
2594,-45,0,0,61,0.00,0
2595,-46,0,0,61,0.00,0
2596,-45,0,0,61,0.00,0
2597,-41,0,0,61,0.00,0
2598,-36,0,0,61,0.00,0
2599,-30,0,0,61,0.00,0
2600,-26,0,0,61,0.00,0
2601,-24,0,0,61,0.00,0
2602,-24,0,0,61,0.00,0
2603,-22,0,0,61,0.00,0
2604,-15,0,0,61,0.00,0
2605,-2,0,0,61,0.00,0
2606,14,0,0,61,0.00,0
2607,25,0,0,61,0.00,0
2608,29,0,0,61,0.00,0
2609,31,0,0,61,0.00,0
2610,41,0,0,61,0.00,0
2611,66,0,0,61,0.00,0
2612,104,0,0,61,0.00,0
2613,140,0,0,61,0.00,0
2614,157,0,0,61,0.00,0
2615,149,0,0,61,0.00,0
2616,121,0,0,61,0.00,0
2617,87,0,0,61,0.00,0
2618,58,0,0,61,0.00,0
2619,34,0,0,61,0.00,0
2620,13,0,0,61,0.00,0
2621,-12,0,0,61,0.00,0
2622,-40,0,0,61,0.00,0
2623,-69,0,0,61,0.00,0
2624,-91,0,0,61,0.00,0
2625,-100,0,0,61,0.00,0
2626,-91,0,0,61,0.00,0
2627,-68,0,0,61,0.00,0
2628,-42,0,0,61,0.00,0
2629,-28,0,0,61,0.00,0
2630,-33,0,0,61,0.00,0
2631,-48,0,0,61,0.00,0
2632,-53,0,0,61,0.00,0
2633,-36,0,0,61,0.00,0
2634,-10,0,0,61,0.00,0
2635,-11,0,0,61,0.00,0
2636,-71,0,0,61,0.00,0
2637,-182,0,0,61,0.00,0
2638,-279,0,0,61,0.00,0
2639,-260,0,0,61,0.00,0
2640,-38,0,0,61,0.00,0
2641,407,0,0,61,0.00,0
2642,1002,0,0,61,0.00,0
2643,1599,0,0,61,0.00,0
2644,2022,0,0,61,0.00,0
2645,2134,0,0,61,0.00,0
2646,1888,0,0,61,0.00,0
2647,1351,0,0,61,0.00,0
2648,682,0,0,61,0.00,0
2649,74,0,0,61,0.00,0
2650,-326,0,0,61,0.00,0
2651,-476,0,0,61,0.00,0
2652,-438,0,0,61,0.00,0
2653,-331,0,0,61,0.00,0
2654,-258,0,0,61,0.00,0
2655,-253,0,0,61,0.00,0
2656,-289,0,0,61,0.00,0
2657,-317,0,0,61,0.00,0
2658,-315,0,0,61,0.00,0
2659,-294,0,0,61,0.00,0
2660,-279,0,0,61,0.00,0
2661,-283,0,0,61,0.00,0
2662,-294,0,0,61,0.00,0
2663,-294,0,0,61,0.00,0
2664,-278,0,0,61,0.00,0
2665,-253,0,0,61,0.00,0
2666,-235,0,0,61,0.00,0
2667,-228,0,0,61,0.00,0
2668,-225,0,0,61,0.00,0
2669,-220,0,0,61,0.00,0
2670,-210,0,0,61,0.00,0
2671,-199,0,0,61,0.00,0
2672,-189,0,0,61,0.00,0
2673,-177,0,0,61,0.00,0
2674,-163,0,0,61,0.00,0
2675,-148,0,0,61,0.00,0
2676,-137,0,0,61,0.00,0
2677,-131,0,0,61,0.00,0
2678,-122,0,0,61,0.00,0
2679,-99,0,0,61,0.00,0
2680,-55,0,0,61,0.00,0
2681,-4,0,0,61,0.00,0
2682,35,0,0,61,0.00,0
2683,43,0,0,61,0.00,0
2684,23,0,0,61,0.00,0
2685,-4,0,0,61,0.00,0
2686,-11,0,0,61,0.00,0
2687,10,0,0,61,0.00,0
2688,51,0,0,61,0.00,0
2689,90,0,0,61,0.00,0
2690,116,0,0,61,0.00,0
2691,130,0,0,61,0.00,0
2692,144,0,0,61,0.00,0
2693,163,0,0,61,0.00,0
2694,186,0,0,61,0.00,0
2695,204,0,0,61,0.00,0
2696,214,0,0,61,0.00,0
2697,219,0,0,61,0.00,0
2698,229,0,0,61,0.00,0
2699,245,0,0,61,0.00,0
2700,260,0,0,61,0.00,0
2701,264,0,0,61,0.00,0
2702,254,0,0,61,0.00,0
2703,243,0,0,61,0.00,0
2704,243,0,0,61,0.00,0
2705,254,0,0,61,0.00,0
2706,264,0,0,61,0.00,0
2707,249,0,0,61,0.00,0
2708,194,0,0,61,0.00,0
2709,107,0,0,61,0.00,0
2710,16,0,0,61,0.00,0
2711,-55,0,0,61,0.00,0
2712,-94,0,0,61,0.00,0
2713,-114,0,0,61,0.00,0
2714,-133,0,0,61,0.00,0
2715,-163,0,0,61,0.00,0
2716,-199,0,0,61,0.00,0
2717,-225,0,0,61,0.00,0
2718,-235,0,0,61,0.00,0
2719,-232,0,0,61,0.00,0
2720,-232,0,0,61,0.00,0
2721,-242,0,0,61,0.00,0
2722,-256,0,0,61,0.00,0
2723,-258,0,0,61,0.00,0
2724,-236,0,0,61,0.00,0
2725,-194,0,0,61,0.00,0
2726,-154,0,0,61,0.00,0
2727,-136,0,0,61,0.00,0
2728,-143,0,0,61,0.00,0
2729,-160,0,0,61,0.00,0
2730,-164,0,0,61,0.00,0
2731,-146,0,0,61,0.00,0
2732,-119,0,0,61,0.00,0
2733,-107,0,0,61,0.00,0
2734,-125,0,0,61,0.00,0
2735,-165,0,0,61,0.00,0
2736,-197,0,0,61,0.00,0
2737,-195,0,0,61,0.00,0
2738,-159,0,0,61,0.00,0
2739,-116,0,0,61,0.00,0
2740,-98,0,0,61,0.00,0
2741,-116,0,0,61,0.00,0
2742,-150,0,0,61,0.00,0
2743,-162,0,0,61,0.00,0
2744,-128,0,0,61,0.00,0
2745,-58,0,0,61,0.00,0
2746,9,0,0,61,0.00,0
2747,34,0,0,61,0.00,0
2748,5,0,0,61,0.00,0
2749,-52,0,0,61,0.00,0
2750,-96,0,0,61,0.00,0
2751,-100,0,0,61,0.00,0
2752,-69,0,0,61,0.00,0
2753,-37,0,0,61,0.00,0
2754,-38,0,0,61,0.00,0
2755,-78,0,0,61,0.00,0
2756,-133,0,0,61,0.00,0
2757,-165,0,0,61,0.00,0
2758,-152,0,0,61,0.00,0
2759,-105,0,0,61,0.00,0
2760,-57,0,0,61,0.00,0
2761,-36,0,0,61,0.00,0
2762,-47,0,0,61,0.00,0
2763,-70,0,0,61,0.00,0
2764,-74,0,0,61,0.00,0
2765,-48,0,0,61,0.00,0
2766,-5,0,0,61,0.00,0
2767,28,0,0,61,0.00,0
2768,25,0,0,61,0.00,0
2769,-13,0,0,61,0.00,0
2770,-63,0,0,61,0.00,0
2771,-93,0,0,61,0.00,0
2772,-87,0,0,61,0.00,0
2773,-56,0,0,61,0.00,0
2774,-34,0,0,61,0.00,0
2775,-49,0,0,61,0.00,0
2776,-99,0,0,61,0.00,0
2777,-150,0,0,61,0.00,0
2778,-156,0,0,61,0.00,0
2779,-102,0,0,61,0.00,0
2780,-15,0,0,61,0.00,0
2781,51,0,0,61,0.00,0
2782,56,0,0,61,0.00,0
2783,7,0,0,61,0.00,0
2784,-44,0,0,61,0.00,0
2785,-42,0,0,61,0.00,0
2786,27,0,0,61,0.00,0
2787,124,0,0,61,0.00,0
2788,187,0,0,61,0.00,0
2789,180,0,0,61,0.00,0
2790,122,0,0,61,0.00,0
2791,60,0,0,61,0.00,0
2792,38,0,0,61,0.00,0
2793,58,0,0,61,0.00,0
2794,93,0,0,61,0.00,0
2795,109,0,0,61,0.00,0
2796,98,0,0,61,0.00,0
2797,77,0,0,61,0.00,0
2798,67,0,0,61,0.00,0
2799,75,0,0,61,0.00,0
2800,91,0,0,61,0.00,0
2801,104,0,0,61,0.00,0
2802,106,0,0,61,0.00,0
2803,99,0,0,61,0.00,0
2804,88,0,0,61,0.00,0
2805,73,0,0,61,0.00,0
2806,57,0,0,61,0.00,0
2807,46,0,0,61,0.00,0
2808,44,0,0,61,0.00,0
2809,53,0,0,61,0.00,0
2810,66,0,0,61,0.00,0
2811,71,0,0,61,0.00,0
2812,65,0,0,61,0.00,0
2813,57,0,0,61,0.00,0
2814,61,0,0,61,0.00,0
2815,83,0,0,61,0.00,0
2816,118,0,0,61,0.00,0
2817,142,0,0,61,0.00,0
2818,140,0,0,61,0.00,0
2819,106,0,0,61,0.00,0
2820,56,0,0,61,0.00,0
2821,16,0,0,61,0.00,0
2822,5,0,0,61,0.00,0
2823,22,0,0,61,0.00,0
2824,52,0,0,61,0.00,0
2825,71,0,0,61,0.00,0
2826,69,0,0,61,0.00,0
2827,52,0,0,61,0.00,0
2828,40,0,0,61,0.00,0
2829,48,0,0,61,0.00,0
2830,77,0,0,61,0.00,0
2831,110,0,0,61,0.00,0
2832,127,0,0,61,0.00,0
2833,119,0,0,61,0.00,0
2834,94,0,0,61,0.00,0
2835,74,0,0,61,0.00,0
2836,74,0,0,61,0.00,0
2837,91,0,0,61,0.00,0
2838,105,0,0,61,0.00,0
2839,97,0,0,61,0.00,0
2840,60,0,0,61,0.00,0
2841,13,0,0,61,0.00,0
2842,-20,0,0,61,0.00,0
2843,-18,0,0,61,0.00,0
2844,17,0,0,61,0.00,0
2845,64,0,0,61,0.00,0
2846,96,0,0,61,0.00,0
2847,101,0,0,61,0.00,0
2848,86,0,0,61,0.00,0
2849,67,0,0,61,0.00,0
2850,60,0,0,61,0.00,0
2851,68,0,0,61,0.00,0
2852,80,0,0,61,0.00,0
2853,86,0,0,61,0.00,0
2854,79,0,0,61,0.00,0
2855,68,0,0,61,0.00,0
2856,60,0,0,61,0.00,0
2857,61,0,0,61,0.00,0
2858,69,0,0,61,0.00,0
2859,73,0,0,61,0.00,0
2860,69,0,0,61,0.00,0
2861,60,0,0,61,0.00,0
2862,54,0,0,61,0.00,0
2863,56,0,0,61,0.00,0
2864,65,0,0,61,0.00,0
2865,71,0,0,61,0.00,0
2866,66,0,0,61,0.00,0
2867,53,0,0,61,0.00,0
2868,43,0,0,61,0.00,0
2869,49,0,0,61,0.00,0
2870,72,0,0,61,0.00,0
2871,102,0,0,61,0.00,0
2872,121,0,0,61,0.00,0
2873,119,0,0,61,0.00,0
2874,94,0,0,61,0.00,0
2875,60,0,0,61,0.00,0
2876,32,0,0,61,0.00,0
2877,19,0,0,61,0.00,0
2878,24,0,0,61,0.00,0
2879,42,0,0,61,0.00,0
2880,63,0,0,61,0.00,0
2881,78,0,0,61,0.00,0
2882,80,0,0,61,0.00,0
2883,69,0,0,61,0.00,0
2884,52,0,0,61,0.00,0
2885,42,0,0,61,0.00,0
2886,44,0,0,61,0.00,0
2887,53,0,0,61,0.00,0
2888,58,0,0,61,0.00,0
2889,50,0,0,61,0.00,0
2890,30,0,0,61,0.00,0
2891,14,0,0,61,0.00,0
2892,14,0,0,61,0.00,0
2893,28,0,0,61,0.00,0
2894,36,0,0,61,0.00,0
2895,22,0,0,61,0.00,0
2896,-13,0,0,61,0.00,0
2897,-44,0,0,61,0.00,0
2898,-47,0,0,61,0.00,0
2899,-12,0,0,61,0.00,0
2900,38,0,0,61,0.00,0
2901,68,0,0,61,0.00,0
2902,61,0,0,61,0.00,0
2903,31,0,0,61,0.00,0
2904,12,0,0,61,0.00,0
2905,31,0,0,61,0.00,0
2906,82,0,0,61,0.00,0
2907,130,0,0,61,0.00,0
2908,139,0,0,61,0.00,0
2909,94,0,0,61,0.00,0
2910,17,0,0,61,0.00,0
2911,-55,0,0,61,0.00,0
2912,-88,0,0,61,0.00,0
2913,-76,0,0,61,0.00,0
2914,-34,0,0,61,0.00,0
2915,13,0,0,61,0.00,0
2916,44,0,0,61,0.00,0
2917,51,0,0,61,0.00,0
2918,38,0,0,61,0.00,0
2919,16,0,0,61,0.00,0
2920,-1,0,0,61,0.00,0
2921,-7,0,0,61,0.00,0
2922,-3,0,0,61,0.00,0
2923,2,0,0,61,0.00,0
2924,1,0,0,61,0.00,0
2925,-9,0,0,61,0.00,0
2926,-17,0,0,61,0.00,0
2927,-15,0,0,61,0.00,0
2928,-4,0,0,61,0.00,0
2929,4,0,0,61,0.00,0
2930,-7,0,0,61,0.00,0
2931,-38,0,0,61,0.00,0
2932,-70,0,0,61,0.00,0
2933,-78,0,0,61,0.00,0
2934,-49,0,0,61,0.00,0
2935,1,0,0,61,0.00,0
2936,43,0,0,61,0.00,0
2937,53,0,0,61,0.00,0
2938,35,0,0,61,0.00,0
2939,12,0,0,61,0.00,0
2940,10,0,0,61,0.00,0
2941,34,0,0,61,0.00,0
2942,63,0,0,61,0.00,0
2943,72,0,0,61,0.00,0
2944,49,0,0,61,0.00,0
2945,8,0,0,61,0.00,0
2946,-24,0,0,61,0.00,0
2947,-31,0,0,61,0.00,0
2948,-14,0,0,61,0.00,0
2949,9,0,0,61,0.00,0
2950,20,0,0,61,0.00,0
2951,15,0,0,61,0.00,0
2952,5,0,0,61,0.00,0
2953,3,0,0,61,0.00,0
2954,10,0,0,61,0.00,0
2955,19,0,0,61,0.00,0
2956,21,0,0,61,0.00,0
2957,14,0,0,61,0.00,0
2958,7,0,0,61,0.00,0
2959,8,0,0,61,0.00,0
2960,18,0,0,61,0.00,0
2961,27,0,0,61,0.00,0
2962,28,0,0,61,0.00,0
2963,22,0,0,61,0.00,0
2964,19,0,0,61,0.00,0
2965,29,0,0,61,0.00,0
2966,52,0,0,61,0.00,0
2967,76,0,0,61,0.00,0
2968,84,0,0,61,0.00,0
2969,66,0,0,61,0.00,0
2970,27,0,0,61,0.00,0
2971,-14,0,0,61,0.00,0
2972,-37,0,0,61,0.00,0
2973,-30,0,0,61,0.00,0
2974,-3,0,0,61,0.00,0
2975,27,0,0,61,0.00,0
2976,44,0,0,61,0.00,0
2977,43,0,0,61,0.00,0
2978,32,0,0,61,0.00,0
2979,23,0,0,61,0.00,0
2980,22,0,0,61,0.00,0
2981,25,0,0,61,0.00,0
2982,23,0,0,61,0.00,0
2983,14,0,0,61,0.00,0
2984,9,0,0,61,0.00,0
2985,20,0,0,61,0.00,0
2986,54,0,0,61,0.00,0
2987,94,0,0,61,0.00,0
2988,109,0,0,61,0.00,0
2989,78,0,0,61,0.00,0
2990,7,0,0,61,0.00,0
2991,-72,0,0,61,0.00,0
2992,-117,0,0,61,0.00,0
2993,-105,0,0,61,0.00,0
2994,-50,0,0,61,0.00,0
2995,10,0,0,61,0.00,0
2996,40,0,0,61,0.00,0
2997,33,0,0,61,0.00,0
2998,8,0,0,61,0.00,0
2999,-8,0,0,61,0.00,0
3000,-4,0,0,61,0.00,0
3001,11,0,0,61,0.00,0
3002,19,0,0,61,0.00,0
3003,12,0,0,61,0.00,0
3004,1,0,0,61,0.00,0
3005,5,0,0,61,0.00,0
3006,30,0,0,61,0.00,0
3007,62,0,0,61,0.00,0
3008,72,0,0,61,0.00,0
3009,44,0,0,61,0.00,0
3010,-13,0,0,61,0.00,0
3011,-68,0,0,61,0.00,0
3012,-87,0,0,61,0.00,0
3013,-65,0,0,61,0.00,0
3014,-26,0,0,61,0.00,0
3015,-7,0,0,61,0.00,0
3016,-23,0,0,61,0.00,0
3017,-57,0,0,61,0.00,0
3018,-74,0,0,61,0.00,0
3019,-50,0,0,61,0.00,0
3020,5,0,0,61,0.00,0
3021,54,0,0,61,0.00,0
3022,66,0,0,61,0.00,0
3023,40,0,0,61,0.00,0
3024,9,0,0,61,0.00,0
3025,10,0,0,61,0.00,0
3026,53,0,0,61,0.00,0
3027,108,0,0,61,0.00,0
3028,129,0,0,61,0.00,0
3029,86,0,0,61,0.00,0
3030,-5,0,0,61,0.00,0
3031,-92,0,0,61,0.00,0
3032,-123,0,0,61,0.00,0
3033,-89,0,0,61,0.00,0
3034,-25,0,0,61,0.00,0
3035,14,0,0,61,0.00,0
3036,0,0,0,61,0.00,0
3037,-48,0,0,61,0.00,0
3038,-81,0,0,61,0.00,0
3039,-61,0,0,61,0.00,0
3040,8,0,0,61,0.00,0
3041,80,0,0,61,0.00,0
3042,109,0,0,61,0.00,0
3043,84,0,0,61,0.00,0
3044,38,0,0,61,0.00,0
3045,15,0,0,61,0.00,0
3046,34,0,0,61,0.00,0
3047,69,0,0,61,0.00,0
3048,82,0,0,61,0.00,0
3049,54,0,0,61,0.00,0
3050,6,0,0,61,0.00,0
3051,-20,0,0,61,0.00,0
3052,-5,0,0,61,0.00,0
3053,29,0,0,61,0.00,0
3054,36,0,0,61,0.00,0
3055,-14,0,0,61,0.00,0
3056,-98,0,0,61,0.00,0
3057,-161,0,0,61,0.00,0
3058,-157,0,0,61,0.00,0
3059,-88,0,0,61,0.00,0
3060,-6,0,0,61,0.00,0
3061,35,0,0,61,0.00,0
3062,19,0,0,61,0.00,0
3063,-21,0,0,61,0.00,0
3064,-38,0,0,61,0.00,0
3065,-12,0,0,61,0.00,0
3066,38,0,0,61,0.00,0
3067,71,0,0,61,0.00,0
3068,66,0,0,61,0.00,0
3069,38,0,0,61,0.00,0
3070,20,0,0,61,0.00,0
3071,33,0,0,61,0.00,0
3072,64,0,0,61,0.00,0
3073,81,0,0,61,0.00,0
3074,60,0,0,61,0.00,0
3075,3,0,0,61,0.00,0
3076,-58,0,0,61,0.00,0
3077,-90,0,0,61,0.00,0
3078,-81,0,0,61,0.00,0
3079,-41,0,0,61,0.00,0
3080,6,0,0,61,0.00,0
3081,42,0,0,61,0.00,0
3082,57,0,0,61,0.00,0
3083,51,0,0,61,0.00,0
3084,28,0,0,61,0.00,0
3085,-2,0,0,61,0.00,0
3086,-28,0,0,61,0.00,0
3087,-35,0,0,61,0.00,0
3088,-23,0,0,61,0.00,0
3089,-7,0,0,61,0.00,0
3090,-12,0,0,61,0.00,0
3091,-47,0,0,61,0.00,0
3092,-94,0,0,61,0.00,0
3093,-116,0,0,61,0.00,0
3094,-84,0,0,61,0.00,0
3095,-2,0,0,61,0.00,0
3096,89,0,0,61,0.00,0
3097,138,0,0,61,0.00,0
3098,124,0,0,61,0.00,0
3099,64,0,0,61,0.00,0
3100,1,0,0,61,0.00,0
3101,-31,0,0,61,0.00,0
3102,-27,0,0,61,0.00,0
3103,-8,0,0,61,0.00,0
3104,0,0,0,61,0.00,0
3105,-10,0,0,61,0.00,0
3106,-26,0,0,61,0.00,0
3107,-36,0,0,61,0.00,0
3108,-36,0,0,61,0.00,0
3109,-32,0,0,61,0.00,0
3110,-30,0,0,61,0.00,0
3111,-29,0,0,61,0.00,0
3112,-26,0,0,61,0.00,0
3113,-21,0,0,61,0.00,0
3114,-24,0,0,61,0.00,0
3115,-35,0,0,61,0.00,0
3116,-42,0,0,61,0.00,0
3117,-30,0,0,61,0.00,0
3118,-3,0,0,61,0.00,0
3119,7,0,0,61,0.00,0
3120,-37,0,0,61,0.00,0
3121,-139,0,0,61,0.00,0
3122,-247,0,0,61,0.00,0
3123,-280,0,0,61,0.00,0
3124,-194,0,0,61,0.00,0
3125,-21,0,0,61,0.00,0
3126,144,0,0,61,0.00,0
3127,211,0,0,61,0.00,0
3128,163,0,0,61,0.00,0
3129,62,0,0,61,0.00,0
3130,-3,0,0,61,0.00,0
3131,13,0,0,61,0.00,0
3132,74,0,0,61,0.00,0
3133,110,0,0,61,0.00,0
3134,77,0,0,61,0.00,0
3135,-2,0,0,61,0.00,0
3136,-62,0,0,61,0.00,0
3137,-59,0,0,61,0.00,0
3138,-10,0,0,61,0.00,0
3139,22,0,0,61,0.00,0
3140,-13,0,0,61,0.00,0
3141,-106,0,0,61,0.00,0
3142,-193,0,0,61,0.00,0
3143,-207,0,0,61,0.00,0
3144,-136,0,0,61,0.00,0
3145,-28,0,0,61,0.00,0
3146,49,0,0,61,0.00,0
3147,56,0,0,61,0.00,0
3148,12,0,0,61,0.00,0
3149,-30,0,0,61,0.00,0
3150,-32,0,0,61,0.00,0
3151,5,0,0,61,0.00,0
3152,44,0,0,61,0.00,0
3153,53,0,0,61,0.00,0
3154,22,0,0,61,0.00,0
3155,-22,0,0,61,0.00,0
3156,-47,0,0,61,0.00,0
3157,-39,0,0,61,0.00,0
3158,-11,0,0,61,0.00,0
3159,3,0,0,61,0.00,0
3160,-19,0,0,61,0.00,0
3161,-74,0,0,61,0.00,0
3162,-132,0,0,61,0.00,0
3163,-153,0,0,61,0.00,0
3164,-115,0,0,61,0.00,0
3165,-25,0,0,61,0.00,0
3166,75,0,0,61,0.00,0
3167,136,0,0,61,0.00,0
3168,127,0,0,61,0.00,0
3169,55,0,0,61,0.00,0
3170,-39,0,0,61,0.00,0
3171,-101,0,0,61,0.00,0
3172,-103,0,0,61,0.00,0
3173,-59,0,0,61,0.00,0
3174,-19,0,0,61,0.00,0
3175,-28,0,0,61,0.00,0
3176,-92,0,0,61,0.00,0
3177,-169,0,0,61,0.00,0
3178,-196,0,0,61,0.00,0
3179,-142,0,0,61,0.00,0
3180,-32,0,0,61,0.00,0
3181,66,0,0,61,0.00,0
3182,96,0,0,61,0.00,0
3183,55,0,0,61,0.00,0
3184,-6,0,0,61,0.00,0
3185,-23,0,0,61,0.00,0
3186,26,0,0,61,0.00,0
3187,98,0,0,61,0.00,0
3188,127,0,0,61,0.00,0
3189,73,0,0,61,0.00,0
3190,-41,0,0,61,0.00,0
3191,-147,0,0,61,0.00,0
3192,-187,0,0,61,0.00,0
3193,-156,0,0,61,0.00,0
3194,-98,0,0,61,0.00,0
3195,-68,0,0,61,0.00,0
3196,-84,0,0,61,0.00,0
3197,-122,0,0,61,0.00,0
3198,-141,0,0,61,0.00,0
3199,-120,0,0,61,0.00,0
3200,-72,0,0,61,0.00,0
3201,-29,0,0,61,0.00,0
3202,-13,0,0,61,0.00,0
3203,-25,0,0,61,0.00,0
3204,-49,0,0,61,0.00,0
3205,-71,0,0,61,0.00,0
3206,-82,0,0,61,0.00,0
3207,-82,0,0,61,0.00,0
3208,-74,0,0,61,0.00,0
3209,-62,0,0,61,0.00,0
3210,-52,0,0,61,0.00,0
3211,-49,0,0,61,0.00,0
3212,-54,0,0,61,0.00,0
3213,-59,0,0,61,0.00,0
3214,-54,0,0,61,0.00,0
3215,-35,0,0,61,0.00,0
3216,-5,0,0,61,0.00,0
3217,25,0,0,61,0.00,0
3218,43,0,0,61,0.00,0
3219,36,0,0,61,0.00,0
3220,0,0,0,61,0.00,0
3221,-62,0,0,61,0.00,0
3222,-128,0,0,61,0.00,0
3223,-160,0,0,61,0.00,0
3224,-122,0,0,61,0.00,0
3225,-4,0,0,61,0.00,0
3226,158,0,0,61,0.00,0
3227,289,0,0,61,0.00,0
3228,317,0,0,61,0.00,0
3229,215,0,0,61,0.00,0
3230,26,0,0,61,0.00,0
3231,-155,0,0,61,0.00,0
3232,-245,0,0,61,0.00,0
3233,-214,0,0,61,0.00,0
3234,-104,0,0,61,0.00,0
3235,8,0,0,61,0.00,0
3236,60,0,0,61,0.00,0
3237,44,0,0,61,0.00,0
3238,-1,0,0,61,0.00,0
3239,-22,0,0,61,0.00,0
3240,10,0,0,61,0.00,0
3241,78,0,0,61,0.00,0
3242,140,0,0,61,0.00,0
3243,155,0,0,61,0.00,0
3244,114,0,0,61,0.00,0
3245,38,0,0,61,0.00,0
3246,-32,0,0,61,0.00,0
3247,-63,0,0,61,0.00,0
3248,-49,0,0,61,0.00,0
3249,-12,0,0,61,0.00,0
3250,18,0,0,61,0.00,0
3251,19,0,0,61,0.00,0
3252,-3,0,0,61,0.00,0
3253,-25,0,0,61,0.00,0
3254,-21,0,0,61,0.00,0
3255,18,0,0,61,0.00,0
3256,74,0,0,61,0.00,0
3257,116,0,0,61,0.00,0
3258,118,0,0,61,0.00,0
3259,83,0,0,61,0.00,0
3260,35,0,0,61,0.00,0
3261,7,0,0,61,0.00,0
3262,16,0,0,61,0.00,0
3263,46,0,0,61,0.00,0
3264,64,0,0,61,0.00,0
3265,39,0,0,61,0.00,0
3266,-26,0,0,61,0.00,0
3267,-94,0,0,61,0.00,0
3268,-118,0,0,61,0.00,0
3269,-73,0,0,61,0.00,0
3270,22,0,0,61,0.00,0
3271,118,0,0,61,0.00,0
3272,167,0,0,61,0.00,0
3273,152,0,0,61,0.00,0
3274,95,0,0,61,0.00,0
3275,38,0,0,61,0.00,0
3276,12,0,0,61,0.00,0
3277,20,0,0,61,0.00,0
3278,43,0,0,61,0.00,0
3279,56,0,0,61,0.00,0
3280,52,0,0,61,0.00,0
3281,45,0,0,61,0.00,0
3282,50,0,0,61,0.00,0
3283,69,0,0,61,0.00,0
3284,78,0,0,61,0.00,0
3285,48,0,0,61,0.00,0
3286,-21,0,0,61,0.00,0
3287,-98,0,0,61,0.00,0
3288,-128,0,0,61,0.00,0
3289,-80,0,0,61,0.00,0
3290,30,0,0,61,0.00,0
3291,143,0,0,61,0.00,0
3292,198,0,0,61,0.00,0
3293,174,0,0,61,0.00,0
3294,108,0,0,61,0.00,0
3295,58,0,0,61,0.00,0
3296,63,0,0,61,0.00,0
3297,110,0,0,61,0.00,0
3298,150,0,0,61,0.00,0
3299,137,0,0,61,0.00,0
3300,72,0,0,61,0.00,0
3301,0,0,0,61,0.00,0
3302,-27,0,0,61,0.00,0
3303,1,0,0,61,0.00,0
3304,47,0,0,61,0.00,0
3305,56,0,0,61,0.00,0
3306,8,0,0,61,0.00,0
3307,-61,0,0,61,0.00,0
3308,-90,0,0,61,0.00,0
3309,-45,0,0,61,0.00,0
3310,48,0,0,61,0.00,0
3311,128,0,0,61,0.00,0
3312,145,0,0,61,0.00,0
3313,106,0,0,61,0.00,0
3314,62,0,0,61,0.00,0
3315,62,0,0,61,0.00,0
3316,108,0,0,61,0.00,0
3317,158,0,0,61,0.00,0
3318,167,0,0,61,0.00,0
3319,128,0,0,61,0.00,0
3320,76,0,0,61,0.00,0
3321,53,0,0,61,0.00,0
3322,68,0,0,61,0.00,0
3323,94,0,0,61,0.00,0
3324,94,0,0,61,0.00,0
3325,63,0,0,61,0.00,0
3326,28,0,0,61,0.00,0
3327,19,0,0,61,0.00,0
3328,37,0,0,61,0.00,0
3329,48,0,0,61,0.00,0
3330,20,0,0,61,0.00,0
3331,-45,0,0,61,0.00,0
3332,-104,0,0,61,0.00,0
3333,-115,0,0,61,0.00,0
3334,-73,0,0,61,0.00,0
3335,-15,0,0,61,0.00,0
3336,13,0,0,61,0.00,0
3337,-5,0,0,61,0.00,0
3338,-41,0,0,61,0.00,0
3339,-54,0,0,61,0.00,0
3340,-21,0,0,61,0.00,0
3341,40,0,0,61,0.00,0
3342,93,0,0,61,0.00,0
3343,106,0,0,61,0.00,0
3344,73,0,0,61,0.00,0
3345,12,0,0,61,0.00,0
3346,-50,0,0,61,0.00,0
3347,-87,0,0,61,0.00,0
3348,-86,0,0,61,0.00,0
3349,-50,0,0,61,0.00,0
3350,3,0,0,61,0.00,0
3351,52,0,0,61,0.00,0
3352,78,0,0,61,0.00,0
3353,80,0,0,61,0.00,0
3354,63,0,0,61,0.00,0
3355,37,0,0,61,0.00,0
3356,7,0,0,61,0.00,0
3357,-23,0,0,61,0.00,0
3358,-41,0,0,61,0.00,0
3359,-29,0,0,61,0.00,0
3360,21,0,0,61,0.00,0
3361,97,0,0,61,0.00,0
3362,161,0,0,61,0.00,0
3363,174,0,0,61,0.00,0
3364,124,0,0,61,0.00,0
3365,35,0,0,61,0.00,0
3366,-43,0,0,61,0.00,0
3367,-75,0,0,61,0.00,0
3368,-58,0,0,61,0.00,0
3369,-20,0,0,61,0.00,0
3370,4,0,0,61,0.00,0
3371,3,0,0,61,0.00,0
3372,-13,0,0,61,0.00,0
3373,-25,0,0,61,0.00,0
3374,-30,0,0,61,0.00,0
3375,-36,0,0,61,0.00,0
3376,-51,0,0,61,0.00,0
3377,-69,0,0,61,0.00,0
3378,-75,0,0,61,0.00,0
3379,-61,0,0,61,0.00,0
3380,-39,0,0,61,0.00,0
3381,-33,0,0,61,0.00,0
3382,-51,0,0,61,0.00,0
3383,-78,0,0,61,0.00,0
3384,-84,0,0,61,0.00,0
3385,-52,0,0,61,0.00,0
3386,8,0,0,61,0.00,0
3387,61,0,0,61,0.00,0
3388,72,0,0,61,0.00,0
3389,33,0,0,61,0.00,0
3390,-32,0,0,61,0.00,0
3391,-85,0,0,61,0.00,0
3392,-101,0,0,61,0.00,0
3393,-84,0,0,61,0.00,0
3394,-62,0,0,61,0.00,0
3395,-59,0,0,61,0.00,0
3396,-79,0,0,61,0.00,0
3397,-105,0,0,61,0.00,0
3398,-115,0,0,61,0.00,0
3399,-99,0,0,61,0.00,0
3400,-66,0,0,61,0.00,0
3401,-34,0,0,61,0.00,0
3402,-15,0,0,61,0.00,0
3403,-13,0,0,61,0.00,0
3404,-28,0,0,61,0.00,0
3405,-58,0,0,61,0.00,0
3406,-96,0,0,61,0.00,0
3407,-130,0,0,61,0.00,0
3408,-139,0,0,61,0.00,0
3409,-115,0,0,61,0.00,0
3410,-72,0,0,61,0.00,0
3411,-41,0,0,61,0.00,0
3412,-45,0,0,61,0.00,0
3413,-77,0,0,61,0.00,0
3414,-97,0,0,61,0.00,0
3415,-68,0,0,61,0.00,0
3416,18,0,0,61,0.00,0
3417,118,0,0,61,0.00,0
3418,167,0,0,61,0.00,0
3419,118,0,0,61,0.00,0
3420,-21,0,0,61,0.00,0
3421,-188,0,0,61,0.00,0
3422,-307,0,0,61,0.00,0
3423,-327,0,0,61,0.00,0
3424,-250,0,0,61,0.00,0
3425,-114,0,0,61,0.00,0
3426,25,0,0,61,0.00,0
3427,119,0,0,61,0.00,0
3428,141,0,0,61,0.00,0
3429,80,0,0,61,0.00,0
3430,-48,0,0,61,0.00,0
3431,-200,0,0,61,0.00,0
3432,-317,0,0,61,0.00,0
3433,-347,0,0,61,0.00,0
3434,-273,0,0,61,0.00,0
3435,-124,0,0,61,0.00,0
3436,35,0,0,61,0.00,0
3437,138,0,0,61,0.00,0
3438,151,0,0,61,0.00,0
3439,77,0,0,61,0.00,0
3440,-45,0,0,61,0.00,0
3441,-165,0,0,61,0.00,0
3442,-238,0,0,61,0.00,0
3443,-242,0,0,61,0.00,0
3444,-182,0,0,61,0.00,0
3445,-89,0,0,61,0.00,0
3446,-3,0,0,61,0.00,0
3447,43,0,0,61,0.00,0
3448,37,0,0,61,0.00,0
3449,-2,0,0,61,0.00,0
3450,-39,0,0,61,0.00,0
3451,-44,0,0,61,0.00,0
3452,-13,0,0,61,0.00,0
3453,29,0,0,61,0.00,0
3454,41,0,0,61,0.00,0
3455,-3,0,0,61,0.00,0
3456,-93,0,0,61,0.00,0
3457,-178,0,0,61,0.00,0
3458,-206,0,0,61,0.00,0
3459,-152,0,0,61,0.00,0
3460,-45,0,0,61,0.00,0
3461,60,0,0,61,0.00,0
3462,114,0,0,61,0.00,0
3463,108,0,0,61,0.00,0
3464,68,0,0,61,0.00,0
3465,22,0,0,61,0.00,0
3466,-21,0,0,61,0.00,0
3467,-65,0,0,61,0.00,0
3468,-101,0,0,61,0.00,0
3469,-99,0,0,61,0.00,0
3470,-25,0,0,61,0.00,0
3471,115,0,0,61,0.00,0
3472,255,0,0,61,0.00,0
3473,308,0,0,61,0.00,0
3474,226,0,0,61,0.00,0
3475,51,0,0,61,0.00,0
3476,-110,0,0,61,0.00,0
3477,-164,0,0,61,0.00,0
3478,-101,0,0,61,0.00,0
3479,-9,0,0,61,0.00,0
3480,2,0,0,61,0.00,0
3481,-110,0,0,61,0.00,0
3482,-279,0,0,61,0.00,0
3483,-379,0,0,61,0.00,0
3484,-322,0,0,61,0.00,0
3485,-123,0,0,61,0.00,0
3486,113,0,0,61,0.00,0
3487,263,0,0,61,0.00,0
3488,267,0,0,61,0.00,0
3489,152,0,0,61,0.00,0
3490,-1,0,0,61,0.00,0
3491,-115,0,0,61,0.00,0
3492,-158,0,0,61,0.00,0
3493,-140,0,0,61,0.00,0
3494,-92,0,0,61,0.00,0
3495,-38,0,0,61,0.00,0
3496,5,0,0,61,0.00,0
3497,33,0,0,61,0.00,0
3498,40,0,0,61,0.00,0
3499,24,0,0,61,0.00,0
3500,-12,0,0,61,0.00,0
3501,-55,0,0,61,0.00,0
3502,-87,0,0,61,0.00,0
3503,-94,0,0,61,0.00,0
3504,-76,0,0,61,0.00,0
3505,-48,0,0,61,0.00,0
3506,-30,0,0,61,0.00,0
3507,-31,0,0,61,0.00,0
3508,-46,0,0,61,0.00,0
3509,-54,0,0,61,0.00,0
3510,-38,0,0,61,0.00,0
3511,2,0,0,61,0.00,0
3512,44,0,0,61,0.00,0
3513,59,0,0,61,0.00,0
3514,33,0,0,61,0.00,0
3515,-14,0,0,61,0.00,0
3516,-43,0,0,61,0.00,0
3517,-25,0,0,61,0.00,0
3518,24,0,0,61,0.00,0
3519,49,0,0,61,0.00,0
3520,-4,0,0,61,0.00,0
3521,-138,0,0,61,0.00,0
3522,-288,0,0,61,0.00,0
3523,-357,0,0,61,0.00,0
3524,-289,0,0,61,0.00,0
3525,-108,0,0,61,0.00,0
3526,91,0,0,61,0.00,0
3527,208,0,0,61,0.00,0
3528,202,0,0,61,0.00,0
3529,114,0,0,61,0.00,0
3530,22,0,0,61,0.00,0
3531,-14,0,0,61,0.00,0
3532,9,0,0,61,0.00,0
3533,51,0,0,61,0.00,0
3534,64,0,0,61,0.00,0
3535,33,0,0,61,0.00,0
3536,-20,0,0,61,0.00,0
3537,-57,0,0,61,0.00,0
3538,-53,0,0,61,0.00,0
3539,-17,0,0,61,0.00,0
3540,21,0,0,61,0.00,0
3541,35,0,0,61,0.00,0
3542,20,0,0,61,0.00,0
3543,-4,0,0,61,0.00,0
3544,-9,0,0,61,0.00,0
3545,16,0,0,61,0.00,0
3546,62,0,0,61,0.00,0
3547,101,0,0,61,0.00,0
3548,110,0,0,61,0.00,0
3549,87,0,0,61,0.00,0
3550,45,0,0,61,0.00,0
3551,5,0,0,61,0.00,0
3552,-19,0,0,61,0.00,0
3553,-24,0,0,61,0.00,0
3554,-12,0,0,61,0.00,0
3555,14,0,0,61,0.00,0
3556,51,0,0,61,0.00,0
3557,87,0,0,61,0.00,0
3558,102,0,0,61,0.00,0
3559,81,0,0,61,0.00,0
3560,25,0,0,61,0.00,0
3561,-44,0,0,61,0.00,0
3562,-94,0,0,61,0.00,0
3563,-104,0,0,61,0.00,0
3564,-76,0,0,61,0.00,0
3565,-27,0,0,61,0.00,0
3566,20,0,0,61,0.00,0
3567,53,0,0,61,0.00,0
3568,63,0,0,61,0.00,0
3569,44,0,0,61,0.00,0
3570,-1,0,0,61,0.00,0
3571,-56,0,0,61,0.00,0
3572,-93,0,0,61,0.00,0
3573,-89,0,0,61,0.00,0
3574,-48,0,0,61,0.00,0
3575,0,0,0,61,0.00,0
3576,23,0,0,61,0.00,0
3577,19,0,0,61,0.00,0
3578,8,0,0,61,0.00,0
3579,12,0,0,61,0.00,0
3580,27,0,0,61,0.00,0
3581,24,0,0,61,0.00,0
3582,-12,0,0,61,0.00,0
3583,-56,0,0,61,0.00,0
3584,-55,0,0,61,0.00,0
3585,25,0,0,61,0.00,0
3586,156,0,0,61,0.00,0
3587,262,0,0,61,0.00,0
3588,279,0,0,61,0.00,0
3589,209,0,0,61,0.00,0
3590,118,0,0,61,0.00,0
3591,81,0,0,61,0.00,0
3592,114,0,0,61,0.00,0
3593,168,0,0,61,0.00,0
3594,175,0,0,61,0.00,0
3595,116,0,0,61,0.00,0
3596,39,0,0,61,0.00,0
3597,10,0,0,61,0.00,0
3598,46,0,0,61,0.00,0
3599,96,0,0,61,0.00,0
3600,82,0,0,61,0.00,0
3601,-25,0,0,61,0.00,0
3602,-170,0,0,61,0.00,0
3603,-252,0,0,61,0.00,0
3604,-203,0,0,61,0.00,0
3605,-43,0,0,61,0.00,0
3606,136,0,0,61,0.00,0
3607,236,0,0,61,0.00,0
3608,222,0,0,61,0.00,0
3609,135,0,0,61,0.00,0
3610,47,0,0,61,0.00,0
3611,7,0,0,61,0.00,0
3612,13,0,0,61,0.00,0
3613,33,0,0,61,0.00,0
3614,40,0,0,61,0.00,0
3615,34,0,0,61,0.00,0
3616,31,0,0,61,0.00,0
3617,41,0,0,61,0.00,0
3618,51,0,0,61,0.00,0
3619,46,0,0,61,0.00,0
3620,23,0,0,61,0.00,0
3621,3,0,0,61,0.00,0
3622,7,0,0,61,0.00,0
3623,32,0,0,61,0.00,0
3624,47,0,0,61,0.00,0
3625,17,0,0,61,0.00,0
3626,-56,0,0,61,0.00,0
3627,-130,0,0,61,0.00,0
3628,-154,0,0,61,0.00,0
3629,-111,0,0,61,0.00,0
3630,-37,0,0,61,0.00,0
3631,15,0,0,61,0.00,0
3632,14,0,0,61,0.00,0
3633,-16,0,0,61,0.00,0
3634,-32,0,0,61,0.00,0
3635,-11,0,0,61,0.00,0
3636,27,0,0,61,0.00,0
3637,45,0,0,61,0.00,0
3638,27,0,0,61,0.00,0
3639,4,0,0,61,0.00,0
3640,16,0,0,61,0.00,0
3641,76,0,0,61,0.00,0
3642,145,0,0,61,0.00,0
3643,169,0,0,61,0.00,0
3644,127,0,0,61,0.00,0
3645,60,0,0,61,0.00,0
3646,33,0,0,61,0.00,0
3647,77,0,0,61,0.00,0
3648,154,0,0,61,0.00,0
3649,179,0,0,61,0.00,0
3650,95,0,0,61,0.00,0
3651,-74,0,0,61,0.00,0
3652,-234,0,0,61,0.00,0
3653,-287,0,0,61,0.00,0
3654,-204,0,0,61,0.00,0
3655,-50,0,0,61,0.00,0
3656,74,0,0,61,0.00,0
3657,103,0,0,61,0.00,0
3658,51,0,0,61,0.00,0
3659,-10,0,0,61,0.00,0
3660,-19,0,0,61,0.00,0
3661,33,0,0,61,0.00,0
3662,100,0,0,61,0.00,0
3663,125,0,0,61,0.00,0
3664,92,0,0,61,0.00,0
3665,28,0,0,61,0.00,0
3666,-20,0,0,61,0.00,0
3667,-26,0,0,61,0.00,0
3668,-2,0,0,61,0.00,0
3669,19,0,0,61,0.00,0
3670,11,0,0,61,0.00,0
3671,-21,0,0,61,0.00,0
3672,-53,0,0,61,0.00,0
3673,-63,0,0,61,0.00,0
3674,-47,0,0,61,0.00,0
3675,-19,0,0,61,0.00,0
3676,3,0,0,61,0.00,0
3677,13,0,0,61,0.00,0
3678,12,0,0,61,0.00,0
3679,5,0,0,61,0.00,0
3680,-7,0,0,61,0.00,0
3681,-23,0,0,61,0.00,0
3682,-36,0,0,61,0.00,0
3683,-38,0,0,61,0.00,0
3684,-29,0,0,61,0.00,0
3685,-22,0,0,61,0.00,0
3686,-33,0,0,61,0.00,0
3687,-61,0,0,61,0.00,0
3688,-85,0,0,61,0.00,0
3689,-80,0,0,61,0.00,0
3690,-40,0,0,61,0.00,0
3691,15,0,0,61,0.00,0
3692,52,0,0,61,0.00,0
3693,50,0,0,61,0.00,0
3694,21,0,0,61,0.00,0
3695,-7,0,0,61,0.00,0
3696,-12,0,0,61,0.00,0
3697,3,0,0,61,0.00,0
3698,15,0,0,61,0.00,0
3699,11,0,0,61,0.00,0
3700,-6,0,0,61,0.00,0
3701,-16,0,0,61,0.00,0
3702,-9,0,0,61,0.00,0
3703,5,0,0,61,0.00,0
3704,6,0,0,61,0.00,0
3705,-18,0,0,61,0.00,0
3706,-54,0,0,61,0.00,0
3707,-76,0,0,61,0.00,0
3708,-70,0,0,61,0.00,0
3709,-51,0,0,61,0.00,0
3710,-49,0,0,61,0.00,0
3711,-79,0,0,61,0.00,0
3712,-130,0,0,61,0.00,0
3713,-164,0,0,61,0.00,0
3714,-153,0,0,61,0.00,0
3715,-100,0,0,61,0.00,0
3716,-35,0,0,61,0.00,0
3717,9,0,0,61,0.00,0
3718,16,0,0,61,0.00,0
3719,-7,0,0,61,0.00,0
3720,-43,0,0,61,0.00,0
3721,-81,0,0,61,0.00,0
3722,-112,0,0,61,0.00,0
3723,-128,0,0,61,0.00,0
3724,-118,0,0,61,0.00,0
3725,-84,0,0,61,0.00,0
3726,-41,0,0,61,0.00,0
3727,-13,0,0,61,0.00,0
3728,-14,0,0,61,0.00,0
3729,-35,0,0,61,0.00,0
3730,-50,0,0,61,0.00,0
3731,-42,0,0,61,0.00,0
3732,-15,0,0,61,0.00,0
3733,2,0,0,61,0.00,0
3734,-9,0,0,61,0.00,0
3735,-43,0,0,61,0.00,0
3736,-65,0,0,61,0.00,0
3737,-50,0,0,61,0.00,0
3738,-8,0,0,61,0.00,0
3739,14,0,0,61,0.00,0
3740,-30,0,0,61,0.00,0
3741,-140,0,0,61,0.00,0
3742,-257,0,0,61,0.00,0
3743,-307,0,0,61,0.00,0
3744,-257,0,0,61,0.00,0
3745,-142,0,0,61,0.00,0
3746,-38,0,0,61,0.00,0
3747,-4,0,0,61,0.00,0
3748,-35,0,0,61,0.00,0
3749,-79,0,0,61,0.00,0
3750,-82,0,0,61,0.00,0
3751,-33,0,0,61,0.00,0
3752,28,0,0,61,0.00,0
3753,53,0,0,61,0.00,0
3754,29,0,0,61,0.00,0
3755,-15,0,0,61,0.00,0
3756,-37,0,0,61,0.00,0
3757,-21,0,0,61,0.00,0
3758,10,0,0,61,0.00,0
3759,18,0,0,61,0.00,0
3760,-16,0,0,61,0.00,0
3761,-72,0,0,61,0.00,0
3762,-112,0,0,61,0.00,0
3763,-111,0,0,61,0.00,0
3764,-80,0,0,61,0.00,0
3765,-52,0,0,61,0.00,0
3766,-52,0,0,61,0.00,0
3767,-76,0,0,61,0.00,0
3768,-95,0,0,61,0.00,0
3769,-86,0,0,61,0.00,0
3770,-52,0,0,61,0.00,0
3771,-17,0,0,61,0.00,0
3772,-5,0,0,61,0.00,0
3773,-17,0,0,61,0.00,0
3774,-34,0,0,61,0.00,0
3775,-34,0,0,61,0.00,0
3776,-11,0,0,61,0.00,0
3777,19,0,0,61,0.00,0
3778,36,0,0,61,0.00,0
3779,28,0,0,61,0.00,0
3780,0,0,0,61,0.00,0
3781,-33,0,0,61,0.00,0
3782,-54,0,0,61,0.00,0
3783,-55,0,0,61,0.00,0
3784,-37,0,0,61,0.00,0
3785,-13,0,0,61,0.00,0
3786,3,0,0,61,0.00,0
3787,0,0,0,61,0.00,0
3788,-17,0,0,61,0.00,0
3789,-31,0,0,61,0.00,0
3790,-21,0,0,61,0.00,0
3791,16,0,0,61,0.00,0
3792,61,0,0,61,0.00,0
3793,82,0,0,61,0.00,0
3794,60,0,0,61,0.00,0
3795,11,0,0,61,0.00,0
3796,-29,0,0,61,0.00,0
3797,-28,0,0,61,0.00,0
3798,6,0,0,61,0.00,0
3799,32,0,0,61,0.00,0
3800,6,0,0,61,0.00,0
3801,-77,0,0,61,0.00,0
3802,-173,0,0,61,0.00,0
3803,-222,0,0,61,0.00,0
3804,-191,0,0,61,0.00,0
3805,-103,0,0,61,0.00,0
3806,-16,0,0,61,0.00,0
3807,23,0,0,61,0.00,0
3808,9,0,0,61,0.00,0
3809,-25,0,0,61,0.00,0
3810,-41,0,0,61,0.00,0
3811,-26,0,0,61,0.00,0
3812,0,0,0,61,0.00,0
3813,12,0,0,61,0.00,0
3814,0,0,0,61,0.00,0
3815,-23,0,0,61,0.00,0
3816,-36,0,0,61,0.00,0
3817,-27,0,0,61,0.00,0
3818,-7,0,0,61,0.00,0
3819,6,0,0,61,0.00,0
3820,-6,0,0,61,0.00,0
3821,-44,0,0,61,0.00,0
3822,-92,0,0,61,0.00,0
3823,-123,0,0,61,0.00,0
3824,-114,0,0,61,0.00,0
3825,-63,0,0,61,0.00,0
3826,11,0,0,61,0.00,0
3827,69,0,0,61,0.00,0
3828,80,0,0,61,0.00,0
3829,41,0,0,61,0.00,0
3830,-19,0,0,61,0.00,0
3831,-53,0,0,61,0.00,0
3832,-35,0,0,61,0.00,0
3833,15,0,0,61,0.00,0
3834,45,0,0,61,0.00,0
3835,9,0,0,61,0.00,0
3836,-91,0,0,61,0.00,0
3837,-198,0,0,61,0.00,0
3838,-242,0,0,61,0.00,0
3839,-196,0,0,61,0.00,0
3840,-96,0,0,61,0.00,0
3841,-13,0,0,61,0.00,0
3842,5,0,0,61,0.00,0
3843,-31,0,0,61,0.00,0
3844,-64,0,0,61,0.00,0
3845,-48,0,0,61,0.00,0
3846,12,0,0,61,0.00,0
3847,69,0,0,61,0.00,0
3848,78,0,0,61,0.00,0
3849,42,0,0,61,0.00,0
3850,8,0,0,61,0.00,0
3851,20,0,0,61,0.00,0
3852,78,0,0,61,0.00,0
3853,136,0,0,61,0.00,0
3854,136,0,0,61,0.00,0
3855,65,0,0,61,0.00,0
3856,-37,0,0,61,0.00,0
3857,-109,0,0,61,0.00,0
3858,-115,0,0,61,0.00,0
3859,-68,0,0,61,0.00,0
3860,-17,0,0,61,0.00,0
3861,2,0,0,61,0.00,0
3862,-12,0,0,61,0.00,0
3863,-35,0,0,61,0.00,0
3864,-41,0,0,61,0.00,0
3865,-28,0,0,61,0.00,0
3866,-12,0,0,61,0.00,0
3867,-11,0,0,61,0.00,0
3868,-23,0,0,61,0.00,0
3869,-32,0,0,61,0.00,0
3870,-22,0,0,61,0.00,0
3871,6,0,0,61,0.00,0
3872,39,0,0,61,0.00,0
3873,58,0,0,61,0.00,0
3874,51,0,0,61,0.00,0
3875,21,0,0,61,0.00,0
3876,-19,0,0,61,0.00,0
3877,-52,0,0,61,0.00,0
3878,-60,0,0,61,0.00,0
3879,-40,0,0,61,0.00,0
3880,-2,0,0,61,0.00,0
3881,33,0,0,61,0.00,0
3882,48,0,0,61,0.00,0
3883,43,0,0,61,0.00,0
3884,32,0,0,61,0.00,0
3885,32,0,0,61,0.00,0
3886,46,0,0,61,0.00,0
3887,63,0,0,61,0.00,0
3888,69,0,0,61,0.00,0
3889,58,0,0,61,0.00,0
3890,45,0,0,61,0.00,0
3891,45,0,0,61,0.00,0
3892,63,0,0,61,0.00,0
3893,83,0,0,61,0.00,0
3894,82,0,0,61,0.00,0
3895,54,0,0,61,0.00,0
3896,14,0,0,61,0.00,0
3897,-13,0,0,61,0.00,0
3898,-12,0,0,61,0.00,0
3899,7,0,0,61,0.00,0
3900,23,0,0,61,0.00,0
3901,23,0,0,61,0.00,0
3902,17,0,0,61,0.00,0
3903,21,0,0,61,0.00,0
3904,36,0,0,61,0.00,0
3905,40,0,0,61,0.00,0
3906,7,0,0,61,0.00,0
3907,-62,0,0,61,0.00,0
3908,-126,0,0,61,0.00,0
3909,-130,0,0,61,0.00,0
3910,-49,0,0,61,0.00,0
3911,86,0,0,61,0.00,0
3912,204,0,0,61,0.00,0
3913,239,0,0,61,0.00,0
3914,184,0,0,61,0.00,0
3915,90,0,0,61,0.00,0
3916,28,0,0,61,0.00,0
3917,33,0,0,61,0.00,0
3918,84,0,0,61,0.00,0
3919,120,0,0,61,0.00,0
3920,94,0,0,61,0.00,0
3921,7,0,0,61,0.00,0
3922,-91,0,0,61,0.00,0
3923,-141,0,0,61,0.00,0
3924,-114,0,0,61,0.00,0
3925,-37,0,0,61,0.00,0
3926,38,0,0,61,0.00,0
3927,69,0,0,61,0.00,0
3928,49,0,0,61,0.00,0
3929,13,0,0,61,0.00,0
3930,2,0,0,61,0.00,0
3931,32,0,0,61,0.00,0
3932,83,0,0,61,0.00,0
3933,115,0,0,61,0.00,0
3934,100,0,0,61,0.00,0
3935,43,0,0,61,0.00,0
3936,-20,0,0,61,0.00,0
3937,-52,0,0,61,0.00,0
3938,-45,0,0,61,0.00,0
3939,-20,0,0,61,0.00,0
3940,-9,0,0,61,0.00,0
3941,-23,0,0,61,0.00,0
3942,-46,0,0,61,0.00,0
3943,-53,0,0,61,0.00,0
3944,-37,0,0,61,0.00,0
3945,-19,0,0,61,0.00,0
3946,-30,0,0,61,0.00,0
3947,-75,0,0,61,0.00,0
3948,-126,0,0,61,0.00,0
3949,-138,0,0,61,0.00,0
3950,-87,0,0,61,0.00,0
3951,6,0,0,61,0.00,0
3952,93,0,0,61,0.00,0
3953,127,0,0,61,0.00,0
3954,101,0,0,61,0.00,0
3955,42,0,0,61,0.00,0
3956,-8,0,0,61,0.00,0
3957,-23,0,0,61,0.00,0
3958,-9,0,0,61,0.00,0
3959,12,0,0,61,0.00,0
3960,16,0,0,61,0.00,0
3961,-1,0,0,61,0.00,0
3962,-24,0,0,61,0.00,0
3963,-35,0,0,61,0.00,0
3964,-24,0,0,61,0.00,0
3965,0,0,0,61,0.00,0
3966,21,0,0,61,0.00,0
3967,28,0,0,61,0.00,0
3968,24,0,0,61,0.00,0
3969,20,0,0,61,0.00,0
3970,25,0,0,61,0.00,0
3971,32,0,0,61,0.00,0
3972,32,0,0,61,0.00,0
3973,19,0,0,61,0.00,0
3974,6,0,0,61,0.00,0
3975,10,0,0,61,0.00,0
3976,41,0,0,61,0.00,0
3977,81,0,0,61,0.00,0
3978,101,0,0,61,0.00,0
3979,87,0,0,61,0.00,0
3980,52,0,0,61,0.00,0
3981,31,0,0,61,0.00,0
3982,48,0,0,61,0.00,0
3983,89,0,0,61,0.00,0
3984,107,0,0,61,0.00,0
3985,63,0,0,61,0.00,0
3986,-42,0,0,61,0.00,0
3987,-154,0,0,61,0.00,0
3988,-209,0,0,61,0.00,0
3989,-177,0,0,61,0.00,0
3990,-85,0,0,61,0.00,0
3991,7,0,0,61,0.00,0
3992,51,0,0,61,0.00,0
3993,38,0,0,61,0.00,0
3994,2,0,0,61,0.00,0
3995,-23,0,0,61,0.00,0
3996,-22,0,0,61,0.00,0
3997,-7,0,0,61,0.00,0
3998,2,0,0,61,0.00,0
3999,-4,0,0,61,0.00,0
4000,-17,0,0,61,0.00,0
4001,-22,0,0,61,0.00,0
4002,-14,0,0,61,0.00,0
4003,0,0,0,61,0.00,0
4004,7,0,0,61,0.00,0
4005,-2,0,0,61,0.00,0
4006,-21,0,0,61,0.00,0
4007,-41,0,0,61,0.00,0
4008,-47,0,0,61,0.00,0
4009,-35,0,0,61,0.00,0
4010,-14,0,0,61,0.00,0
4011,3,0,0,61,0.00,0
4012,4,0,0,61,0.00,0
4013,-11,0,0,61,0.00,0
4014,-28,0,0,61,0.00,0
4015,-31,0,0,61,0.00,0
4016,-10,0,0,61,0.00,0
4017,25,0,0,61,0.00,0
4018,50,0,0,61,0.00,0
4019,47,0,0,61,0.00,0
4020,16,0,0,61,0.00,0
4021,-25,0,0,61,0.00,0
4022,-48,0,0,61,0.00,0
4023,-44,0,0,61,0.00,0
4024,-24,0,0,61,0.00,0
4025,-16,0,0,61,0.00,0
4026,-35,0,0,61,0.00,0
4027,-72,0,0,61,0.00,0
4028,-101,0,0,61,0.00,0
4029,-98,0,0,61,0.00,0
4030,-63,0,0,61,0.00,0
4031,-20,0,0,61,0.00,0
4032,5,0,0,61,0.00,0
4033,-1,0,0,61,0.00,0
4034,-23,0,0,61,0.00,0
4035,-35,0,0,61,0.00,0
4036,-23,0,0,61,0.00,0
4037,9,0,0,61,0.00,0
4038,37,0,0,61,0.00,0
4039,42,0,0,61,0.00,0
4040,21,0,0,61,0.00,0
4041,-7,0,0,61,0.00,0
4042,-22,0,0,61,0.00,0
4043,-16,0,0,61,0.00,0
4044,-2,0,0,61,0.00,0
4045,-3,0,0,61,0.00,0
4046,-26,0,0,61,0.00,0
4047,-58,0,0,61,0.00,0
4048,-73,0,0,61,0.00,0
4049,-53,0,0,61,0.00,0
4050,-14,0,0,61,0.00,0
4051,13,0,0,61,0.00,0
4052,3,0,0,61,0.00,0
4053,-33,0,0,61,0.00,0
4054,-57,0,0,61,0.00,0
4055,-31,0,0,61,0.00,0
4056,42,0,0,61,0.00,0
4057,121,0,0,61,0.00,0
4058,154,0,0,61,0.00,0
4059,124,0,0,61,0.00,0
4060,62,0,0,61,0.00,0
4061,26,0,0,61,0.00,0
4062,47,0,0,61,0.00,0
4063,103,0,0,61,0.00,0
4064,137,0,0,61,0.00,0
4065,104,0,0,61,0.00,0
4066,14,0,0,61,0.00,0
4067,-76,0,0,61,0.00,0
4068,-109,0,0,61,0.00,0
4069,-72,0,0,61,0.00,0
4070,-8,0,0,61,0.00,0
4071,29,0,0,61,0.00,0
4072,16,0,0,61,0.00,0
4073,-20,0,0,61,0.00,0
4074,-34,0,0,61,0.00,0
4075,-5,0,0,61,0.00,0
4076,46,0,0,61,0.00,0
4077,75,0,0,61,0.00,0
4078,62,0,0,61,0.00,0
4079,30,0,0,61,0.00,0
4080,20,0,0,61,0.00,0
4081,56,0,0,61,0.00,0
4082,118,0,0,61,0.00,0
4083,158,0,0,61,0.00,0
4084,146,0,0,61,0.00,0
4085,93,0,0,61,0.00,0
4086,46,0,0,61,0.00,0
4087,44,0,0,61,0.00,0
4088,85,0,0,61,0.00,0
4089,124,0,0,61,0.00,0
4090,111,0,0,61,0.00,0
4091,36,0,0,61,0.00,0
4092,-63,0,0,61,0.00,0
4093,-126,0,0,61,0.00,0
4094,-113,0,0,61,0.00,0
4095,-32,0,0,61,0.00,0
4096,67,0,0,61,0.00,0
4097,128,0,0,61,0.00,0
4098,128,0,0,61,0.00,0
4099,87,0,0,61,0.00,0
4100,45,0,0,61,0.00,0
4101,36,0,0,61,0.00,0
4102,58,0,0,61,0.00,0
4103,86,0,0,61,0.00,0
4104,91,0,0,61,0.00,0
4105,64,0,0,61,0.00,0
4106,23,0,0,61,0.00,0
4107,-6,0,0,61,0.00,0
4108,-8,0,0,61,0.00,0
4109,9,0,0,61,0.00,0
4110,23,0,0,61,0.00,0
4111,23,0,0,61,0.00,0
4112,13,0,0,61,0.00,0
4113,6,0,0,61,0.00,0
4114,10,0,0,61,0.00,0
4115,15,0,0,61,0.00,0
4116,10,0,0,61,0.00,0
4117,-6,0,0,61,0.00,0
4118,-18,0,0,61,0.00,0
4119,-9,0,0,61,0.00,0
4120,15,0,0,61,0.00,0
4121,30,0,0,61,0.00,0
4122,15,0,0,61,0.00,0
4123,-25,0,0,61,0.00,0
4124,-53,0,0,61,0.00,0
4125,-29,0,0,61,0.00,0
4126,56,0,0,61,0.00,0
4127,167,0,0,61,0.00,0
4128,244,0,0,61,0.00,0
4129,243,0,0,61,0.00,0
4130,167,0,0,61,0.00,0
4131,57,0,0,61,0.00,0
4132,-32,0,0,61,0.00,0
4133,-66,0,0,61,0.00,0
4134,-41,0,0,61,0.00,0
4135,18,0,0,61,0.00,0
4136,81,0,0,61,0.00,0
4137,126,0,0,61,0.00,0
4138,142,0,0,61,0.00,0
4139,132,0,0,61,0.00,0
4140,105,0,0,61,0.00,0
4141,70,0,0,61,0.00,0
4142,41,0,0,61,0.00,0
4143,25,0,0,61,0.00,0
4144,26,0,0,61,0.00,0
4145,40,0,0,61,0.00,0
4146,60,0,0,61,0.00,0
4147,79,0,0,61,0.00,0
4148,88,0,0,61,0.00,0
4149,83,0,0,61,0.00,0
4150,64,0,0,61,0.00,0
4151,42,0,0,61,0.00,0
4152,29,0,0,61,0.00,0
4153,31,0,0,61,0.00,0
4154,41,0,0,61,0.00,0
4155,45,0,0,61,0.00,0
4156,36,0,0,61,0.00,0
4157,21,0,0,61,0.00,0
4158,15,0,0,61,0.00,0
4159,27,0,0,61,0.00,0
4160,41,0,0,61,0.00,0
4161,31,0,0,61,0.00,0
4162,-18,0,0,61,0.00,0
4163,-81,0,0,61,0.00,0
4164,-110,0,0,61,0.00,0
4165,-66,0,0,61,0.00,0
4166,45,0,0,61,0.00,0
4167,165,0,0,61,0.00,0
4168,225,0,0,61,0.00,0
4169,194,0,0,61,0.00,0
4170,101,0,0,61,0.00,0
4171,12,0,0,61,0.00,0
4172,-22,0,0,61,0.00,0
4173,-2,0,0,61,0.00,0
4174,30,0,0,61,0.00,0
4175,29,0,0,61,0.00,0
4176,-10,0,0,61,0.00,0
4177,-56,0,0,61,0.00,0
4178,-76,0,0,61,0.00,0
4179,-61,0,0,61,0.00,0
4180,-40,0,0,61,0.00,0
4181,-41,0,0,61,0.00,0
4182,-66,0,0,61,0.00,0
4183,-93,0,0,61,0.00,0
4184,-95,0,0,61,0.00,0
4185,-75,0,0,61,0.00,0
4186,-60,0,0,61,0.00,0
4187,-75,0,0,61,0.00,0
4188,-116,0,0,61,0.00,0
4189,-146,0,0,61,0.00,0
4190,-128,0,0,61,0.00,0
4191,-57,0,0,61,0.00,0
4192,27,0,0,61,0.00,0
4193,75,0,0,61,0.00,0
4194,61,0,0,61,0.00,0
4195,7,0,0,61,0.00,0
4196,-40,0,0,61,0.00,0
4197,-46,0,0,61,0.00,0
4198,-17,0,0,61,0.00,0
4199,9,0,0,61,0.00,0
4200,-7,0,0,61,0.00,0
4201,-67,0,0,61,0.00,0
4202,-135,0,0,61,0.00,0
4203,-168,0,0,61,0.00,0
4204,-150,0,0,61,0.00,0
4205,-103,0,0,61,0.00,0
4206,-67,0,0,61,0.00,0
4207,-64,0,0,61,0.00,0
4208,-82,0,0,61,0.00,0
4209,-90,0,0,61,0.00,0
4210,-73,0,0,61,0.00,0
4211,-40,0,0,61,0.00,0
4212,-20,0,0,61,0.00,0
4213,-26,0,0,61,0.00,0
4214,-43,0,0,61,0.00,0
4215,-42,0,0,61,0.00,0
4216,-8,0,0,61,0.00,0
4217,43,0,0,61,0.00,0
4218,77,0,0,61,0.00,0
4219,71,0,0,61,0.00,0
4220,32,0,0,61,0.00,0
4221,-8,0,0,61,0.00,0
4222,-24,0,0,61,0.00,0
4223,-15,0,0,61,0.00,0
4224,3,0,0,61,0.00,0
4225,12,0,0,61,0.00,0
4226,9,0,0,61,0.00,0
4227,8,0,0,61,0.00,0
4228,17,0,0,61,0.00,0
4229,29,0,0,61,0.00,0
4230,25,0,0,61,0.00,0
4231,-10,0,0,61,0.00,0
4232,-66,0,0,61,0.00,0
4233,-115,0,0,61,0.00,0
4234,-125,0,0,61,0.00,0
4235,-86,0,0,61,0.00,0
4236,-15,0,0,61,0.00,0
4237,50,0,0,61,0.00,0
4238,78,0,0,61,0.00,0
4239,61,0,0,61,0.00,0
4240,20,0,0,61,0.00,0
4241,-10,0,0,61,0.00,0
4242,-4,0,0,61,0.00,0
4243,31,0,0,61,0.00,0
4244,60,0,0,61,0.00,0
4245,46,0,0,61,0.00,0
4246,-17,0,0,61,0.00,0
4247,-95,0,0,61,0.00,0
4248,-140,0,0,61,0.00,0
4249,-122,0,0,61,0.00,0
4250,-62,0,0,61,0.00,0
4251,-10,0,0,61,0.00,0
4252,-7,0,0,61,0.00,0
4253,-47,0,0,61,0.00,0
4254,-81,0,0,61,0.00,0
4255,-61,0,0,61,0.00,0
4256,21,0,0,61,0.00,0
4257,120,0,0,61,0.00,0
4258,177,0,0,61,0.00,0
4259,162,0,0,61,0.00,0
4260,95,0,0,61,0.00,0
4261,25,0,0,61,0.00,0
4262,-8,0,0,61,0.00,0
4263,-2,0,0,61,0.00,0
4264,20,0,0,61,0.00,0
4265,34,0,0,61,0.00,0
4266,34,0,0,61,0.00,0
4267,33,0,0,61,0.00,0
4268,39,0,0,61,0.00,0
4269,47,0,0,61,0.00,0
4270,41,0,0,61,0.00,0
4271,12,0,0,61,0.00,0
4272,-31,0,0,61,0.00,0
4273,-64,0,0,61,0.00,0
4274,-69,0,0,61,0.00,0
4275,-42,0,0,61,0.00,0
4276,4,0,0,61,0.00,0
4277,50,0,0,61,0.00,0
4278,78,0,0,61,0.00,0
4279,78,0,0,61,0.00,0
4280,47,0,0,61,0.00,0
4281,-9,0,0,61,0.00,0
4282,-73,0,0,61,0.00,0
4283,-119,0,0,61,0.00,0
4284,-123,0,0,61,0.00,0
4285,-81,0,0,61,0.00,0
4286,-8,0,0,61,0.00,0
4287,58,0,0,61,0.00,0
4288,88,0,0,61,0.00,0
4289,72,0,0,61,0.00,0
4290,27,0,0,61,0.00,0
4291,-16,0,0,61,0.00,0
4292,-35,0,0,61,0.00,0
4293,-31,0,0,61,0.00,0
4294,-21,0,0,61,0.00,0
4295,-19,0,0,61,0.00,0
4296,-25,0,0,61,0.00,0
4297,-24,0,0,61,0.00,0
4298,-6,0,0,61,0.00,0
4299,19,0,0,61,0.00,0
4300,26,0,0,61,0.00,0
4301,-8,0,0,61,0.00,0
4302,-77,0,0,61,0.00,0
4303,-140,0,0,61,0.00,0
4304,-154,0,0,61,0.00,0
4305,-100,0,0,61,0.00,0
4306,-4,0,0,61,0.00,0
4307,82,0,0,61,0.00,0
4308,118,0,0,61,0.00,0
4309,96,0,0,61,0.00,0
4310,44,0,0,61,0.00,0
4311,-2,0,0,61,0.00,0
4312,-23,0,0,61,0.00,0
4313,-22,0,0,61,0.00,0
4314,-16,0,0,61,0.00,0
4315,-9,0,0,61,0.00,0
4316,2,0,0,61,0.00,0
4317,21,0,0,61,0.00,0
4318,43,0,0,61,0.00,0
4319,53,0,0,61,0.00,0
4320,39,0,0,61,0.00,0
4321,5,0,0,61,0.00,0
4322,-28,0,0,61,0.00,0
4323,-40,0,0,61,0.00,0
4324,-26,0,0,61,0.00,0
4325,-3,0,0,61,0.00,0
4326,6,0,0,61,0.00,0
4327,-11,0,0,61,0.00,0
4328,-43,0,0,61,0.00,0
4329,-65,0,0,61,0.00,0
4330,-53,0,0,61,0.00,0
4331,-5,0,0,61,0.00,0
4332,54,0,0,61,0.00,0
4333,93,0,0,61,0.00,0
4334,87,0,0,61,0.00,0
4335,45,0,0,61,0.00,0
4336,-5,0,0,61,0.00,0
4337,-30,0,0,61,0.00,0
4338,-19,0,0,61,0.00,0
4339,6,0,0,61,0.00,0
4340,14,0,0,61,0.00,0
4341,-15,0,0,61,0.00,0
4342,-68,0,0,61,0.00,0
4343,-110,0,0,61,0.00,0
4344,-110,0,0,61,0.00,0
4345,-69,0,0,61,0.00,0
4346,-14,0,0,61,0.00,0
4347,21,0,0,61,0.00,0
4348,25,0,0,61,0.00,0
4349,12,0,0,61,0.00,0
4350,5,0,0,61,0.00,0
4351,12,0,0,61,0.00,0
4352,20,0,0,61,0.00,0
4353,15,0,0,61,0.00,0
4354,0,0,0,61,0.00,0
4355,-6,0,0,61,0.00,0
4356,15,0,0,61,0.00,0
4357,60,0,0,61,0.00,0
4358,100,0,0,61,0.00,0
4359,106,0,0,61,0.00,0
4360,75,0,0,61,0.00,0
4361,32,0,0,61,0.00,0
4362,11,0,0,61,0.00,0
4363,23,0,0,61,0.00,0
4364,47,0,0,61,0.00,0
4365,49,0,0,61,0.00,0
4366,13,0,0,61,0.00,0
4367,-45,0,0,61,0.00,0
4368,-88,0,0,61,0.00,0
4369,-89,0,0,61,0.00,0
4370,-51,0,0,61,0.00,0
4371,-1,0,0,61,0.00,0
4372,32,0,0,61,0.00,0
4373,40,0,0,61,0.00,0
4374,31,0,0,61,0.00,0
4375,21,0,0,61,0.00,0
4376,11,0,0,61,0.00,0
4377,-2,0,0,61,0.00,0
4378,-21,0,0,61,0.00,0
4379,-34,0,0,61,0.00,0
4380,-25,0,0,61,0.00,0
4381,8,0,0,61,0.00,0
4382,51,0,0,61,0.00,0
4383,77,0,0,61,0.00,0
4384,72,0,0,61,0.00,0
4385,44,0,0,61,0.00,0
4386,17,0,0,61,0.00,0
4387,12,0,0,61,0.00,0
4388,28,0,0,61,0.00,0
4389,44,0,0,61,0.00,0
4390,38,0,0,61,0.00,0
4391,7,0,0,61,0.00,0
4392,-29,0,0,61,0.00,0
4393,-46,0,0,61,0.00,0
4394,-38,0,0,61,0.00,0
4395,-19,0,0,61,0.00,0
4396,-12,0,0,61,0.00,0
4397,-27,0,0,61,0.00,0
4398,-53,0,0,61,0.00,0
4399,-64,0,0,61,0.00,0
4400,-51,0,0,61,0.00,0
4401,-25,0,0,61,0.00,0
4402,-14,0,0,61,0.00,0
4403,-33,0,0,61,0.00,0
4404,-67,0,0,61,0.00,0
4405,-77,0,0,61,0.00,0
4406,-33,0,0,61,0.00,0
4407,54,0,0,61,0.00,0
4408,133,0,0,61,0.00,0
4409,147,0,0,61,0.00,0
4410,79,0,0,61,0.00,0
4411,-31,0,0,61,0.00,0
4412,-117,0,0,61,0.00,0
4413,-138,0,0,61,0.00,0
4414,-105,0,0,61,0.00,0
4415,-69,0,0,61,0.00,0
4416,-73,0,0,61,0.00,0
4417,-115,0,0,61,0.00,0
4418,-157,0,0,61,0.00,0
4419,-161,0,0,61,0.00,0
4420,-128,0,0,61,0.00,0
4421,-91,0,0,61,0.00,0
4422,-80,0,0,61,0.00,0
4423,-95,0,0,61,0.00,0
4424,-110,0,0,61,0.00,0
4425,-101,0,0,61,0.00,0
4426,-73,0,0,61,0.00,0
4427,-55,0,0,61,0.00,0
4428,-63,0,0,61,0.00,0
4429,-86,0,0,61,0.00,0
4430,-92,0,0,61,0.00,0
4431,-65,0,0,61,0.00,0
4432,-18,0,0,61,0.00,0
4433,12,0,0,61,0.00,0
4434,8,0,0,61,0.00,0
4435,-13,0,0,61,0.00,0
4436,-17,0,0,61,0.00,0
4437,11,0,0,61,0.00,0
4438,52,0,0,61,0.00,0
4439,69,0,0,61,0.00,0
4440,44,0,0,61,0.00,0
4441,-3,0,0,61,0.00,0
4442,-33,0,0,61,0.00,0
4443,-27,0,0,61,0.00,0
4444,-1,0,0,61,0.00,0
4445,7,0,0,61,0.00,0
4446,-28,0,0,61,0.00,0
4447,-92,0,0,61,0.00,0
4448,-148,0,0,61,0.00,0
4449,-161,0,0,61,0.00,0
4450,-126,0,0,61,0.00,0
4451,-58,0,0,61,0.00,0
4452,17,0,0,61,0.00,0
4453,76,0,0,61,0.00,0
4454,97,0,0,61,0.00,0
4455,61,0,0,61,0.00,0
4456,-40,0,0,61,0.00,0
4457,-181,0,0,61,0.00,0
4458,-303,0,0,61,0.00,0
4459,-338,0,0,61,0.00,0
4460,-256,0,0,61,0.00,0
4461,-95,0,0,61,0.00,0
4462,62,0,0,61,0.00,0
4463,136,0,0,61,0.00,0
4464,109,0,0,61,0.00,0
4465,28,0,0,61,0.00,0
4466,-31,0,0,61,0.00,0
4467,-28,0,0,61,0.00,0
4468,20,0,0,61,0.00,0
4469,60,0,0,61,0.00,0
4470,47,0,0,61,0.00,0
4471,-14,0,0,61,0.00,0
4472,-82,0,0,61,0.00,0
4473,-113,0,0,61,0.00,0
4474,-97,0,0,61,0.00,0
4475,-56,0,0,61,0.00,0
4476,-24,0,0,61,0.00,0
4477,-12,0,0,61,0.00,0
4478,-11,0,0,61,0.00,0
4479,-6,0,0,61,0.00,0
4480,0,0,0,61,0.00,0
4481,-11,0,0,61,0.00,0
4482,-49,0,0,61,0.00,0
4483,-98,0,0,61,0.00,0
4484,-124,0,0,61,0.00,0
4485,-98,0,0,61,0.00,0
4486,-24,0,0,61,0.00,0
4487,55,0,0,61,0.00,0
4488,92,0,0,61,0.00,0
4489,70,0,0,61,0.00,0
4490,24,0,0,61,0.00,0
4491,6,0,0,61,0.00,0
4492,48,0,0,61,0.00,0
4493,131,0,0,61,0.00,0
4494,190,0,0,61,0.00,0
4495,168,0,0,61,0.00,0
4496,54,0,0,61,0.00,0
4497,-103,0,0,61,0.00,0
4498,-221,0,0,61,0.00,0
4499,-242,0,0,61,0.00,0
4500,-158,0,0,61,0.00,0
4501,-17,0,0,61,0.00,0
4502,115,0,0,61,0.00,0
4503,187,0,0,61,0.00,0
4504,185,0,0,61,0.00,0
4505,129,0,0,61,0.00,0
4506,49,0,0,61,0.00,0
4507,-26,0,0,61,0.00,0
4508,-72,0,0,61,0.00,0
4509,-77,0,0,61,0.00,0
4510,-39,0,0,61,0.00,0
4511,29,0,0,61,0.00,0
4512,99,0,0,61,0.00,0
4513,141,0,0,61,0.00,0
4514,138,0,0,61,0.00,0
4515,97,0,0,61,0.00,0
4516,48,0,0,61,0.00,0
4517,19,0,0,61,0.00,0
4518,23,0,0,61,0.00,0
4519,45,0,0,61,0.00,0
4520,61,0,0,61,0.00,0
4521,54,0,0,61,0.00,0
4522,27,0,0,61,0.00,0
4523,0,0,0,61,0.00,0
4524,-6,0,0,61,0.00,0
4525,12,0,0,61,0.00,0
4526,37,0,0,61,0.00,0
4527,45,0,0,61,0.00,0
4528,26,0,0,61,0.00,0
4529,-3,0,0,61,0.00,0
4530,-11,0,0,61,0.00,0
4531,22,0,0,61,0.00,0
4532,87,0,0,61,0.00,0
4533,148,0,0,61,0.00,0
4534,163,0,0,61,0.00,0
4535,120,0,0,61,0.00,0
4536,42,0,0,61,0.00,0
4537,-27,0,0,61,0.00,0
4538,-58,0,0,61,0.00,0
4539,-50,0,0,61,0.00,0
4540,-24,0,0,61,0.00,0
4541,-3,0,0,61,0.00,0
4542,12,0,0,61,0.00,0
4543,25,0,0,61,0.00,0
4544,37,0,0,61,0.00,0
4545,32,0,0,61,0.00,0
4546,-4,0,0,61,0.00,0
4547,-62,0,0,61,0.00,0
4548,-107,0,0,61,0.00,0
4549,-107,0,0,61,0.00,0
4550,-62,0,0,61,0.00,0
4551,-14,0,0,61,0.00,0
4552,-11,0,0,61,0.00,0
4553,-60,0,0,61,0.00,0
4554,-117,0,0,61,0.00,0
4555,-118,0,0,61,0.00,0
4556,-33,0,0,61,0.00,0
4557,100,0,0,61,0.00,0
4558,203,0,0,61,0.00,0
4559,219,0,0,61,0.00,0
4560,151,0,0,61,0.00,0
4561,56,0,0,61,0.00,0
4562,-2,0,0,61,0.00,0
4563,-2,0,0,61,0.00,0
4564,32,0,0,61,0.00,0
4565,55,0,0,61,0.00,0
4566,49,0,0,61,0.00,0
4567,30,0,0,61,0.00,0
4568,23,0,0,61,0.00,0
4569,37,0,0,61,0.00,0
4570,52,0,0,61,0.00,0
4571,38,0,0,61,0.00,0
4572,-10,0,0,61,0.00,0
4573,-69,0,0,61,0.00,0
4574,-98,0,0,61,0.00,0
4575,-75,0,0,61,0.00,0
4576,-10,0,0,61,0.00,0
4577,58,0,0,61,0.00,0
4578,91,0,0,61,0.00,0
4579,77,0,0,61,0.00,0
4580,39,0,0,61,0.00,0
4581,11,0,0,61,0.00,0
4582,15,0,0,61,0.00,0
4583,43,0,0,61,0.00,0
4584,66,0,0,61,0.00,0
4585,57,0,0,61,0.00,0
4586,10,0,0,61,0.00,0
4587,-53,0,0,61,0.00,0
4588,-103,0,0,61,0.00,0
4589,-117,0,0,61,0.00,0
4590,-91,0,0,61,0.00,0
4591,-35,0,0,61,0.00,0
4592,29,0,0,61,0.00,0
4593,79,0,0,61,0.00,0
4594,94,0,0,61,0.00,0
4595,64,0,0,61,0.00,0
4596,-2,0,0,61,0.00,0
4597,-77,0,0,61,0.00,0
4598,-125,0,0,61,0.00,0
4599,-128,0,0,61,0.00,0
4600,-93,0,0,61,0.00,0
4601,-47,0,0,61,0.00,0
4602,-17,0,0,61,0.00,0
4603,-12,0,0,61,0.00,0
4604,-21,0,0,61,0.00,0
4605,-29,0,0,61,0.00,0
4606,-29,0,0,61,0.00,0
4607,-29,0,0,61,0.00,0
4608,-38,0,0,61,0.00,0
4609,-52,0,0,61,0.00,0
4610,-57,0,0,61,0.00,0
4611,-37,0,0,61,0.00,0
4612,5,0,0,61,0.00,0
4613,53,0,0,61,0.00,0
4614,81,0,0,61,0.00,0
4615,72,0,0,61,0.00,0
4616,27,0,0,61,0.00,0
4617,-36,0,0,61,0.00,0
4618,-90,0,0,61,0.00,0
4619,-110,0,0,61,0.00,0
4620,-83,0,0,61,0.00,0
4621,-21,0,0,61,0.00,0
4622,46,0,0,61,0.00,0
4623,84,0,0,61,0.00,0
4624,80,0,0,61,0.00,0
4625,48,0,0,61,0.00,0
4626,22,0,0,61,0.00,0
4627,28,0,0,61,0.00,0
4628,59,0,0,61,0.00,0
4629,87,0,0,61,0.00,0
4630,79,0,0,61,0.00,0
4631,30,0,0,61,0.00,0
4632,-35,0,0,61,0.00,0
4633,-81,0,0,61,0.00,0
4634,-87,0,0,61,0.00,0
4635,-61,0,0,61,0.00,0
4636,-23,0,0,61,0.00,0
4637,9,0,0,61,0.00,0
4638,29,0,0,61,0.00,0
4639,37,0,0,61,0.00,0
4640,28,0,0,61,0.00,0
4641,0,0,0,61,0.00,0
4642,-43,0,0,61,0.00,0
4643,-83,0,0,61,0.00,0
4644,-97,0,0,61,0.00,0
4645,-75,0,0,61,0.00,0
4646,-29,0,0,61,0.00,0
4647,14,0,0,61,0.00,0
4648,34,0,0,61,0.00,0
4649,32,0,0,61,0.00,0
4650,21,0,0,61,0.00,0
4651,16,0,0,61,0.00,0
4652,17,0,0,61,0.00,0
4653,15,0,0,61,0.00,0
4654,5,0,0,61,0.00,0
4655,-2,0,0,61,0.00,0
4656,10,0,0,61,0.00,0
4657,47,0,0,61,0.00,0
4658,94,0,0,61,0.00,0
4659,121,0,0,61,0.00,0
4660,107,0,0,61,0.00,0
4661,57,0,0,61,0.00,0
4662,1,0,0,61,0.00,0
4663,-25,0,0,61,0.00,0
4664,-12,0,0,61,0.00,0
4665,21,0,0,61,0.00,0
4666,36,0,0,61,0.00,0
4667,9,0,0,61,0.00,0
4668,-50,0,0,61,0.00,0
4669,-98,0,0,61,0.00,0
4670,-87,0,0,61,0.00,0
4671,-2,0,0,61,0.00,0
4672,128,0,0,61,0.00,0
4673,238,0,0,61,0.00,0
4674,271,0,0,61,0.00,0
4675,213,0,0,61,0.00,0
4676,102,0,0,61,0.00,0
4677,-1,0,0,61,0.00,0
4678,-47,0,0,61,0.00,0
4679,-35,0,0,61,0.00,0
4680,4,0,0,61,0.00,0
4681,29,0,0,61,0.00,0
4682,26,0,0,61,0.00,0
4683,7,0,0,61,0.00,0
4684,-3,0,0,61,0.00,0
4685,3,0,0,61,0.00,0
4686,16,0,0,61,0.00,0
4687,15,0,0,61,0.00,0
4688,-6,0,0,61,0.00,0
4689,-29,0,0,61,0.00,0
4690,-28,0,0,61,0.00,0
4691,8,0,0,61,0.00,0
4692,67,0,0,61,0.00,0
4693,117,0,0,61,0.00,0
4694,131,0,0,61,0.00,0
4695,108,0,0,61,0.00,0
4696,68,0,0,61,0.00,0
4697,41,0,0,61,0.00,0
4698,41,0,0,61,0.00,0
4699,58,0,0,61,0.00,0
4700,70,0,0,61,0.00,0
4701,58,0,0,61,0.00,0
4702,26,0,0,61,0.00,0
4703,-3,0,0,61,0.00,0
4704,-8,0,0,61,0.00,0
4705,15,0,0,61,0.00,0
4706,43,0,0,61,0.00,0
4707,45,0,0,61,0.00,0
4708,11,0,0,61,0.00,0
4709,-36,0,0,61,0.00,0
4710,-51,0,0,61,0.00,0
4711,5,0,0,61,0.00,0
4712,124,0,0,61,0.00,0
4713,251,0,0,61,0.00,0
4714,314,0,0,61,0.00,0
4715,269,0,0,61,0.00,0
4716,131,0,0,61,0.00,0
4717,-32,0,0,61,0.00,0
4718,-145,0,0,61,0.00,0
4719,-166,0,0,61,0.00,0
4720,-104,0,0,61,0.00,0
4721,-11,0,0,61,0.00,0
4722,62,0,0,61,0.00,0
4723,89,0,0,61,0.00,0
4724,77,0,0,61,0.00,0
4725,49,0,0,61,0.00,0
4726,27,0,0,61,0.00,0
4727,19,0,0,61,0.00,0
4728,19,0,0,61,0.00,0
4729,16,0,0,61,0.00,0
4730,9,0,0,61,0.00,0
4731,5,0,0,61,0.00,0
4732,15,0,0,61,0.00,0
4733,40,0,0,61,0.00,0
4734,64,0,0,61,0.00,0
4735,66,0,0,61,0.00,0
4736,34,0,0,61,0.00,0
4737,-20,0,0,61,0.00,0
4738,-66,0,0,61,0.00,0
4739,-75,0,0,61,0.00,0
4740,-45,0,0,61,0.00,0
4741,1,0,0,61,0.00,0
4742,30,0,0,61,0.00,0
4743,31,0,0,61,0.00,0
4744,20,0,0,61,0.00,0
4745,20,0,0,61,0.00,0
4746,36,0,0,61,0.00,0
4747,49,0,0,61,0.00,0
4748,36,0,0,61,0.00,0
4749,5,0,0,61,0.00,0
4750,-5,0,0,61,0.00,0
4751,46,0,0,61,0.00,0
4752,156,0,0,61,0.00,0
4753,270,0,0,61,0.00,0
4754,315,0,0,61,0.00,0
4755,258,0,0,61,0.00,0
4756,131,0,0,61,0.00,0
4757,12,0,0,61,0.00,0
4758,-37,0,0,61,0.00,0
4759,-14,0,0,61,0.00,0
4760,35,0,0,61,0.00,0
4761,57,0,0,61,0.00,0
4762,32,0,0,61,0.00,0
4763,-14,0,0,61,0.00,0
4764,-44,0,0,61,0.00,0
4765,-38,0,0,61,0.00,0
4766,-4,0,0,61,0.00,0
4767,32,0,0,61,0.00,0
4768,51,0,0,61,0.00,0
4769,50,0,0,61,0.00,0
4770,35,0,0,61,0.00,0
4771,15,0,0,61,0.00,0
4772,-5,0,0,61,0.00,0
4773,-19,0,0,61,0.00,0
4774,-23,0,0,61,0.00,0
4775,-16,0,0,61,0.00,0
4776,-4,0,0,61,0.00,0
4777,-1,0,0,61,0.00,0
4778,-10,0,0,61,0.00,0
4779,-25,0,0,61,0.00,0
4780,-30,0,0,61,0.00,0
4781,-16,0,0,61,0.00,0
4782,12,0,0,61,0.00,0
4783,37,0,0,61,0.00,0
4784,44,0,0,61,0.00,0
4785,31,0,0,61,0.00,0
4786,8,0,0,61,0.00,0
4787,-10,0,0,61,0.00,0
4788,-17,0,0,61,0.00,0
4789,-15,0,0,61,0.00,0
4790,-8,0,0,61,0.00,0
4791,3,0,0,61,0.00,0
4792,17,0,0,61,0.00,0
4793,31,0,0,61,0.00,0
4794,38,0,0,61,0.00,0
4795,30,0,0,61,0.00,0
4796,11,0,0,61,0.00,0
4797,-6,0,0,61,0.00,0
4798,-6,0,0,61,0.00,0
4799,8,0,0,61,0.00,0
4800,22,0,0,61,0.00,0
4801,13,0,0,61,0.00,0
4802,-25,0,0,61,0.00,0
4803,-72,0,0,61,0.00,0
4804,-97,0,0,61,0.00,0
4805,-82,0,0,61,0.00,0
4806,-32,0,0,61,0.00,0
4807,23,0,0,61,0.00,0
4808,53,0,0,61,0.00,0
4809,50,0,0,61,0.00,0
4810,31,0,0,61,0.00,0
4811,19,0,0,61,0.00,0
4812,27,0,0,61,0.00,0
4813,46,0,0,61,0.00,0
4814,61,0,0,61,0.00,0
4815,58,0,0,61,0.00,0
4816,40,0,0,61,0.00,0
4817,16,0,0,61,0.00,0
4818,-5,0,0,61,0.00,0
4819,-14,0,0,61,0.00,0
4820,-6,0,0,61,0.00,0
4821,21,0,0,61,0.00,0
4822,59,0,0,61,0.00,0
4823,94,0,0,61,0.00,0
4824,107,0,0,61,0.00,0
4825,90,0,0,61,0.00,0
4826,49,0,0,61,0.00,0
4827,6,0,0,61,0.00,0
4828,-22,0,0,61,0.00,0
4829,-28,0,0,61,0.00,0
4830,-22,0,0,61,0.00,0
4831,-15,0,0,61,0.00,0
4832,-15,0,0,61,0.00,0
4833,-21,0,0,61,0.00,0
4834,-26,0,0,61,0.00,0
4835,-26,0,0,61,0.00,0
4836,-20,0,0,61,0.00,0
4837,-8,0,0,61,0.00,0
4838,6,0,0,61,0.00,0
4839,16,0,0,61,0.00,0
4840,12,0,0,61,0.00,0
4841,-10,0,0,61,0.00,0
4842,-46,0,0,61,0.00,0
4843,-80,0,0,61,0.00,0
4844,-93,0,0,61,0.00,0
4845,-80,0,0,61,0.00,0
4846,-54,0,0,61,0.00,0
4847,-35,0,0,61,0.00,0
4848,-34,0,0,61,0.00,0
4849,-46,0,0,61,0.00,0
4850,-55,0,0,61,0.00,0
4851,-48,0,0,61,0.00,0
4852,-28,0,0,61,0.00,0
4853,-8,0,0,61,0.00,0
4854,0,0,0,61,0.00,0
4855,-5,0,0,61,0.00,0
4856,-12,0,0,61,0.00,0
4857,-8,0,0,61,0.00,0
4858,7,0,0,61,0.00,0
4859,22,0,0,61,0.00,0
4860,23,0,0,61,0.00,0
4861,0,0,0,61,0.00,0
4862,-35,0,0,61,0.00,0
4863,-65,0,0,61,0.00,0
4864,-69,0,0,61,0.00,0
4865,-48,0,0,61,0.00,0
4866,-19,0,0,61,0.00,0
4867,-7,0,0,61,0.00,0
4868,-22,0,0,61,0.00,0
4869,-51,0,0,61,0.00,0
4870,-64,0,0,61,0.00,0
4871,-38,0,0,61,0.00,0
4872,24,0,0,61,0.00,0
4873,92,0,0,61,0.00,0
4874,127,0,0,61,0.00,0
4875,109,0,0,61,0.00,0
4876,51,0,0,61,0.00,0
4877,-9,0,0,61,0.00,0
4878,-41,0,0,61,0.00,0
4879,-36,0,0,61,0.00,0
4880,-11,0,0,61,0.00,0
4881,6,0,0,61,0.00,0
4882,-1,0,0,61,0.00,0
4883,-26,0,0,61,0.00,0
4884,-49,0,0,61,0.00,0
4885,-50,0,0,61,0.00,0
4886,-24,0,0,61,0.00,0
4887,18,0,0,61,0.00,0
4888,54,0,0,61,0.00,0
4889,66,0,0,61,0.00,0
4890,49,0,0,61,0.00,0
4891,15,0,0,61,0.00,0
4892,-17,0,0,61,0.00,0
4893,-33,0,0,61,0.00,0
4894,-33,0,0,61,0.00,0
4895,-25,0,0,61,0.00,0
4896,-17,0,0,61,0.00,0
4897,-8,0,0,61,0.00,0
4898,6,0,0,61,0.00,0
4899,21,0,0,61,0.00,0
4900,25,0,0,61,0.00,0
4901,0,0,0,61,0.00,0
4902,-55,0,0,61,0.00,0
4903,-119,0,0,61,0.00,0
4904,-155,0,0,61,0.00,0
4905,-139,0,0,61,0.00,0
4906,-77,0,0,61,0.00,0
4907,-5,0,0,61,0.00,0
4908,38,0,0,61,0.00,0
4909,37,0,0,61,0.00,0
4910,9,0,0,61,0.00,0
4911,-13,0,0,61,0.00,0
4912,-11,0,0,61,0.00,0
4913,12,0,0,61,0.00,0
4914,33,0,0,61,0.00,0
4915,34,0,0,61,0.00,0
4916,16,0,0,61,0.00,0
4917,-6,0,0,61,0.00,0
4918,-17,0,0,61,0.00,0
4919,-18,0,0,61,0.00,0
4920,-16,0,0,61,0.00,0
4921,-16,0,0,61,0.00,0
4922,-16,0,0,61,0.00,0
4923,-5,0,0,61,0.00,0
4924,14,0,0,61,0.00,0
4925,26,0,0,61,0.00,0
4926,9,0,0,61,0.00,0
4927,-49,0,0,61,0.00,0
4928,-127,0,0,61,0.00,0
4929,-184,0,0,61,0.00,0
4930,-181,0,0,61,0.00,0
4931,-105,0,0,61,0.00,0
4932,13,0,0,61,0.00,0
4933,118,0,0,61,0.00,0
4934,160,0,0,61,0.00,0
4935,123,0,0,61,0.00,0
4936,35,0,0,61,0.00,0
4937,-54,0,0,61,0.00,0
4938,-101,0,0,61,0.00,0
4939,-97,0,0,61,0.00,0
4940,-64,0,0,61,0.00,0
4941,-35,0,0,61,0.00,0
4942,-29,0,0,61,0.00,0
4943,-42,0,0,61,0.00,0
4944,-54,0,0,61,0.00,0
4945,-51,0,0,61,0.00,0
4946,-36,0,0,61,0.00,0
4947,-26,0,0,61,0.00,0
4948,-29,0,0,61,0.00,0
4949,-42,0,0,61,0.00,0
4950,-49,0,0,61,0.00,0
4951,-38,0,0,61,0.00,0
4952,-12,0,0,61,0.00,0
4953,13,0,0,61,0.00,0
4954,25,0,0,61,0.00,0
4955,20,0,0,61,0.00,0
4956,8,0,0,61,0.00,0
4957,0,0,0,61,0.00,0
4958,-1,0,0,61,0.00,0
4959,1,0,0,61,0.00,0
4960,2,0,0,61,0.00,0
4961,4,0,0,61,0.00,0
4962,12,0,0,61,0.00,0
4963,27,0,0,61,0.00,0
4964,39,0,0,61,0.00,0
4965,37,0,0,61,0.00,0
4966,21,0,0,61,0.00,0
4967,2,0,0,61,0.00,0
4968,-2,0,0,61,0.00,0
4969,12,0,0,61,0.00,0
4970,29,0,0,61,0.00,0
4971,23,0,0,61,0.00,0
4972,-17,0,0,61,0.00,0
4973,-76,0,0,61,0.00,0
4974,-118,0,0,61,0.00,0
4975,-111,0,0,61,0.00,0
4976,-53,0,0,61,0.00,0
4977,27,0,0,61,0.00,0
4978,92,0,0,61,0.00,0
4979,116,0,0,61,0.00,0
4980,99,0,0,61,0.00,0
4981,56,0,0,61,0.00,0
4982,5,0,0,61,0.00,0
4983,-39,0,0,61,0.00,0
4984,-63,0,0,61,0.00,0
4985,-56,0,0,61,0.00,0
4986,-16,0,0,61,0.00,0
4987,45,0,0,61,0.00,0
4988,96,0,0,61,0.00,0
4989,110,0,0,61,0.00,0
4990,85,0,0,61,0.00,0
4991,46,0,0,61,0.00,0
4992,29,0,0,61,0.00,0
4993,46,0,0,61,0.00,0
4994,79,0,0,61,0.00,0
4995,91,0,0,61,0.00,0
4996,62,0,0,61,0.00,0
4997,5,0,0,61,0.00,0
4998,-41,0,0,61,0.00,0
4999,-51,0,0,61,0.00,0
5000,-32,0,0,61,0.00,0
5001,-15,0,0,61,0.00,0
5002,-25,0,0,61,0.00,0
5003,-56,0,0,61,0.00,0
5004,-80,0,0,61,0.00,0
5005,-72,0,0,61,0.00,0
5006,-38,0,0,61,0.00,0
5007,-10,0,0,61,0.00,0
5008,-19,0,0,61,0.00,0
5009,-62,0,0,61,0.00,0
5010,-98,0,0,61,0.00,0
5011,-86,0,0,61,0.00,0
5012,-14,0,0,61,0.00,0
5013,79,0,0,61,0.00,0
5014,136,0,0,61,0.00,0
5015,121,0,0,61,0.00,0
5016,48,0,0,61,0.00,0
5017,-27,0,0,61,0.00,0
5018,-57,0,0,61,0.00,0
5019,-32,0,0,61,0.00,0
5020,10,0,0,61,0.00,0
5021,17,0,0,61,0.00,0
5022,-32,0,0,61,0.00,0
5023,-112,0,0,61,0.00,0
5024,-170,0,0,61,0.00,0
5025,-166,0,0,61,0.00,0
5026,-106,0,0,61,0.00,0
5027,-34,0,0,61,0.00,0
5028,2,0,0,61,0.00,0
5029,-12,0,0,61,0.00,0
5030,-47,0,0,61,0.00,0
5031,-55,0,0,61,0.00,0
5032,-10,0,0,61,0.00,0
5033,72,0,0,61,0.00,0
5034,142,0,0,61,0.00,0
5035,147,0,0,61,0.00,0
5036,74,0,0,61,0.00,0
5037,-46,0,0,61,0.00,0
5038,-152,0,0,61,0.00,0
5039,-194,0,0,61,0.00,0
5040,-157,0,0,61,0.00,0
5041,-76,0,0,61,0.00,0
5042,-5,0,0,61,0.00,0
5043,14,0,0,61,0.00,0
5044,-16,0,0,61,0.00,0
5045,-53,0,0,61,0.00,0
5046,-50,0,0,61,0.00,0
5047,7,0,0,61,0.00,0
5048,88,0,0,61,0.00,0
5049,140,0,0,61,0.00,0
5050,128,0,0,61,0.00,0
5051,64,0,0,61,0.00,0
5052,-3,0,0,61,0.00,0
5053,-27,0,0,61,0.00,0
5054,1,0,0,61,0.00,0
5055,40,0,0,61,0.00,0
5056,38,0,0,61,0.00,0
5057,-27,0,0,61,0.00,0
5058,-124,0,0,61,0.00,0
5059,-193,0,0,61,0.00,0
5060,-186,0,0,61,0.00,0
5061,-104,0,0,61,0.00,0
5062,6,0,0,61,0.00,0
5063,87,0,0,61,0.00,0
5064,110,0,0,61,0.00,0
5065,81,0,0,61,0.00,0
5066,33,0,0,61,0.00,0
5067,-10,0,0,61,0.00,0
5068,-40,0,0,61,0.00,0
5069,-61,0,0,61,0.00,0
5070,-69,0,0,61,0.00,0
5071,-57,0,0,61,0.00,0
5072,-19,0,0,61,0.00,0
5073,30,0,0,61,0.00,0
5074,60,0,0,61,0.00,0
5075,50,0,0,61,0.00,0
5076,7,0,0,61,0.00,0
5077,-36,0,0,61,0.00,0
5078,-48,0,0,61,0.00,0
5079,-26,0,0,61,0.00,0
5080,0,0,0,61,0.00,0
5081,-6,0,0,61,0.00,0
5082,-54,0,0,61,0.00,0
5083,-117,0,0,61,0.00,0
5084,-157,0,0,61,0.00,0
5085,-149,0,0,61,0.00,0
5086,-102,0,0,61,0.00,0
5087,-44,0,0,61,0.00,0
5088,-1,0,0,61,0.00,0
5089,20,0,0,61,0.00,0
5090,16,0,0,61,0.00,0
5091,-11,0,0,61,0.00,0
5092,-62,0,0,61,0.00,0
5093,-126,0,0,61,0.00,0
5094,-174,0,0,61,0.00,0
5095,-174,0,0,61,0.00,0
5096,-117,0,0,61,0.00,0
5097,-27,0,0,61,0.00,0
5098,50,0,0,61,0.00,0
5099,76,0,0,61,0.00,0
5100,55,0,0,61,0.00,0
5101,17,0,0,61,0.00,0
5102,1,0,0,61,0.00,0
5103,16,0,0,61,0.00,0
5104,44,0,0,61,0.00,0
5105,56,0,0,61,0.00,0
5106,34,0,0,61,0.00,0
5107,-15,0,0,61,0.00,0
5108,-70,0,0,61,0.00,0
5109,-107,0,0,61,0.00,0
5110,-108,0,0,61,0.00,0
5111,-63,0,0,61,0.00,0
5112,20,0,0,61,0.00,0
5113,117,0,0,61,0.00,0
5114,185,0,0,61,0.00,0
5115,186,0,0,61,0.00,0
5116,109,0,0,61,0.00,0
5117,-13,0,0,61,0.00,0
5118,-125,0,0,61,0.00,0
5119,-176,0,0,61,0.00,0
5120,-156,0,0,61,0.00,0
5121,-92,0,0,61,0.00,0
5122,-29,0,0,61,0.00,0
5123,4,0,0,61,0.00,0
5124,7,0,0,61,0.00,0
5125,-5,0,0,61,0.00,0
5126,-16,0,0,61,0.00,0
5127,-24,0,0,61,0.00,0
5128,-34,0,0,61,0.00,0
5129,-45,0,0,61,0.00,0
5130,-52,0,0,61,0.00,0
5131,-46,0,0,61,0.00,0
5132,-32,0,0,61,0.00,0
5133,-23,0,0,61,0.00,0
5134,-29,0,0,61,0.00,0
5135,-44,0,0,61,0.00,0
5136,-45,0,0,61,0.00,0
5137,-10,0,0,61,0.00,0
5138,57,0,0,61,0.00,0
5139,123,0,0,61,0.00,0
5140,143,0,0,61,0.00,0
5141,90,0,0,61,0.00,0
5142,-22,0,0,61,0.00,0
5143,-144,0,0,61,0.00,0
5144,-216,0,0,61,0.00,0
5145,-207,0,0,61,0.00,0
5146,-123,0,0,61,0.00,0
5147,-5,0,0,61,0.00,0
5148,98,0,0,61,0.00,0
5149,148,0,0,61,0.00,0
5150,136,0,0,61,0.00,0
5151,74,0,0,61,0.00,0
5152,-7,0,0,61,0.00,0
5153,-72,0,0,61,0.00,0
5154,-98,0,0,61,0.00,0
5155,-79,0,0,61,0.00,0
5156,-34,0,0,61,0.00,0
5157,5,0,0,61,0.00,0
5158,15,0,0,61,0.00,0
5159,-3,0,0,61,0.00,0
5160,-24,0,0,61,0.00,0
5161,-22,0,0,61,0.00,0
5162,9,0,0,61,0.00,0
5163,49,0,0,61,0.00,0
5164,71,0,0,61,0.00,0
5165,65,0,0,61,0.00,0
5166,47,0,0,61,0.00,0
5167,42,0,0,61,0.00,0
5168,60,0,0,61,0.00,0
5169,84,0,0,61,0.00,0
5170,87,0,0,61,0.00,0
5171,61,0,0,61,0.00,0
5172,26,0,0,61,0.00,0
5173,16,0,0,61,0.00,0
5174,40,0,0,61,0.00,0
5175,74,0,0,61,0.00,0
5176,72,0,0,61,0.00,0
5177,7,0,0,61,0.00,0
5178,-101,0,0,61,0.00,0
5179,-191,0,0,61,0.00,0
5180,-204,0,0,61,0.00,0
5181,-120,0,0,61,0.00,0
5182,25,0,0,61,0.00,0
5183,164,0,0,61,0.00,0
5184,233,0,0,61,0.00,0
5185,211,0,0,61,0.00,0
5186,118,0,0,61,0.00,0
5187,5,0,0,61,0.00,0
5188,-79,0,0,61,0.00,0
5189,-109,0,0,61,0.00,0
5190,-87,0,0,61,0.00,0
5191,-39,0,0,61,0.00,0
5192,3,0,0,61,0.00,0
5193,19,0,0,61,0.00,0
5194,9,0,0,61,0.00,0
5195,-8,0,0,61,0.00,0
5196,-12,0,0,61,0.00,0
5197,7,0,0,61,0.00,0
5198,40,0,0,61,0.00,0
5199,68,0,0,61,0.00,0
5200,74,0,0,61,0.00,0
5201,55,0,0,61,0.00,0
5202,26,0,0,61,0.00,0
5203,4,0,0,61,0.00,0
5204,0,0,0,61,0.00,0
5205,11,0,0,61,0.00,0
5206,20,0,0,61,0.00,0
5207,15,0,0,61,0.00,0
5208,-7,0,0,61,0.00,0
5209,-31,0,0,61,0.00,0
5210,-41,0,0,61,0.00,0
5211,-23,0,0,61,0.00,0
5212,19,0,0,61,0.00,0
5213,68,0,0,61,0.00,0
5214,103,0,0,61,0.00,0
5215,108,0,0,61,0.00,0
5216,79,0,0,61,0.00,0
5217,29,0,0,61,0.00,0
5218,-26,0,0,61,0.00,0
5219,-65,0,0,61,0.00,0
5220,-72,0,0,61,0.00,0
5221,-43,0,0,61,0.00,0
5222,14,0,0,61,0.00,0
5223,79,0,0,61,0.00,0
5224,123,0,0,61,0.00,0
5225,126,0,0,61,0.00,0
5226,84,0,0,61,0.00,0
5227,13,0,0,61,0.00,0
5228,-63,0,0,61,0.00,0
5229,-116,0,0,61,0.00,0
5230,-126,0,0,61,0.00,0
5231,-86,0,0,61,0.00,0
5232,-7,0,0,61,0.00,0
5233,82,0,0,61,0.00,0
5234,139,0,0,61,0.00,0
5235,137,0,0,61,0.00,0
5236,74,0,0,61,0.00,0
5237,-15,0,0,61,0.00,0
5238,-82,0,0,61,0.00,0
5239,-96,0,0,61,0.00,0
5240,-67,0,0,61,0.00,0
5241,-34,0,0,61,0.00,0
5242,-35,0,0,61,0.00,0
5243,-73,0,0,61,0.00,0
5244,-120,0,0,61,0.00,0
5245,-137,0,0,61,0.00,0
5246,-105,0,0,61,0.00,0
5247,-43,0,0,61,0.00,0
5248,15,0,0,61,0.00,0
5249,41,0,0,61,0.00,0
5250,33,0,0,61,0.00,0
5251,5,0,0,61,0.00,0
5252,-25,0,0,61,0.00,0
5253,-50,0,0,61,0.00,0
5254,-68,0,0,61,0.00,0
5255,-74,0,0,61,0.00,0
5256,-59,0,0,61,0.00,0
5257,-24,0,0,61,0.00,0
5258,19,0,0,61,0.00,0
5259,48,0,0,61,0.00,0
5260,49,0,0,61,0.00,0
5261,28,0,0,61,0.00,0
5262,10,0,0,61,0.00,0
5263,19,0,0,61,0.00,0
5264,52,0,0,61,0.00,0
5265,76,0,0,61,0.00,0
5266,56,0,0,61,0.00,0
5267,-19,0,0,61,0.00,0
5268,-117,0,0,61,0.00,0
5269,-181,0,0,61,0.00,0
5270,-172,0,0,61,0.00,0
5271,-94,0,0,61,0.00,0
5272,10,0,0,61,0.00,0
5273,86,0,0,61,0.00,0
5274,110,0,0,61,0.00,0
5275,94,0,0,61,0.00,0
5276,65,0,0,61,0.00,0
5277,40,0,0,61,0.00,0
5278,15,0,0,61,0.00,0
5279,-12,0,0,61,0.00,0
5280,-27,0,0,61,0.00,0
5281,-6,0,0,61,0.00,0
5282,62,0,0,61,0.00,0
5283,147,0,0,61,0.00,0
5284,200,0,0,61,0.00,0
5285,187,0,0,61,0.00,0
5286,126,0,0,61,0.00,0
5287,70,0,0,61,0.00,0
5288,62,0,0,61,0.00,0
5289,97,0,0,61,0.00,0
5290,123,0,0,61,0.00,0
5291,94,0,0,61,0.00,0
5292,13,0,0,61,0.00,0
5293,-73,0,0,61,0.00,0
5294,-114,0,0,61,0.00,0
5295,-100,0,0,61,0.00,0
5296,-61,0,0,61,0.00,0
5297,-36,0,0,61,0.00,0
5298,-35,0,0,61,0.00,0
5299,-41,0,0,61,0.00,0
5300,-39,0,0,61,0.00,0
5301,-36,0,0,61,0.00,0
5302,-50,0,0,61,0.00,0
5303,-85,0,0,61,0.00,0
5304,-118,0,0,61,0.00,0
5305,-119,0,0,61,0.00,0
5306,-83,0,0,61,0.00,0
5307,-37,0,0,61,0.00,0
5308,-16,0,0,61,0.00,0
5309,-30,0,0,61,0.00,0
5310,-53,0,0,61,0.00,0
5311,-53,0,0,61,0.00,0
5312,-21,0,0,61,0.00,0
5313,18,0,0,61,0.00,0
5314,34,0,0,61,0.00,0
5315,25,0,0,61,0.00,0
5316,17,0,0,61,0.00,0
5317,35,0,0,61,0.00,0
5318,74,0,0,61,0.00,0
5319,106,0,0,61,0.00,0
5320,105,0,0,61,0.00,0
5321,81,0,0,61,0.00,0
5322,67,0,0,61,0.00,0
5323,89,0,0,61,0.00,0
5324,138,0,0,61,0.00,0
5325,173,0,0,61,0.00,0
5326,159,0,0,61,0.00,0
5327,94,0,0,61,0.00,0
5328,16,0,0,61,0.00,0
5329,-30,0,0,61,0.00,0
5330,-25,0,0,61,0.00,0
5331,14,0,0,61,0.00,0
5332,53,0,0,61,0.00,0
5333,72,0,0,61,0.00,0
5334,73,0,0,61,0.00,0
5335,70,0,0,61,0.00,0
5336,65,0,0,61,0.00,0
5337,49,0,0,61,0.00,0
5338,9,0,0,61,0.00,0
5339,-44,0,0,61,0.00,0
5340,-76,0,0,61,0.00,0
5341,-50,0,0,61,0.00,0
5342,39,0,0,61,0.00,0
5343,152,0,0,61,0.00,0
5344,229,0,0,61,0.00,0
5345,224,0,0,61,0.00,0
5346,145,0,0,61,0.00,0
5347,37,0,0,61,0.00,0
5348,-47,0,0,61,0.00,0
5349,-85,0,0,61,0.00,0
5350,-85,0,0,61,0.00,0
5351,-66,0,0,61,0.00,0
5352,-32,0,0,61,0.00,0
5353,23,0,0,61,0.00,0
5354,85,0,0,61,0.00,0
5355,116,0,0,61,0.00,0
5356,74,0,0,61,0.00,0
5357,-45,0,0,61,0.00,0
5358,-188,0,0,61,0.00,0
5359,-274,0,0,61,0.00,0
5360,-261,0,0,61,0.00,0
5361,-172,0,0,61,0.00,0
5362,-81,0,0,61,0.00,0
5363,-49,0,0,61,0.00,0
5364,-76,0,0,61,0.00,0
5365,-115,0,0,61,0.00,0
5366,-117,0,0,61,0.00,0
5367,-79,0,0,61,0.00,0
5368,-37,0,0,61,0.00,0
5369,-26,0,0,61,0.00,0
5370,-44,0,0,61,0.00,0
5371,-57,0,0,61,0.00,0
5372,-39,0,0,61,0.00,0
5373,3,0,0,61,0.00,0
5374,36,0,0,61,0.00,0
5375,36,0,0,61,0.00,0
5376,13,0,0,61,0.00,0
5377,2,0,0,61,0.00,0
5378,25,0,0,61,0.00,0
5379,72,0,0,61,0.00,0
5380,103,0,0,61,0.00,0
5381,88,0,0,61,0.00,0
5382,33,0,0,61,0.00,0
5383,-28,0,0,61,0.00,0
5384,-57,0,0,61,0.00,0
5385,-45,0,0,61,0.00,0
5386,-12,0,0,61,0.00,0
5387,11,0,0,61,0.00,0
5388,6,0,0,61,0.00,0
5389,-21,0,0,61,0.00,0
5390,-44,0,0,61,0.00,0
5391,-38,0,0,61,0.00,0
5392,3,0,0,61,0.00,0
5393,61,0,0,61,0.00,0
5394,103,0,0,61,0.00,0
5395,103,0,0,61,0.00,0
5396,63,0,0,61,0.00,0
5397,10,0,0,61,0.00,0
5398,-23,0,0,61,0.00,0
5399,-24,0,0,61,0.00,0
5400,-8,0,0,61,0.00,0
5401,0,0,0,61,0.00,0
5402,-15,0,0,61,0.00,0
5403,-41,0,0,61,0.00,0
5404,-55,0,0,61,0.00,0
5405,-48,0,0,61,0.00,0
5406,-33,0,0,61,0.00,0
5407,-33,0,0,61,0.00,0
5408,-60,0,0,61,0.00,0
5409,-97,0,0,61,0.00,0
5410,-113,0,0,61,0.00,0
5411,-91,0,0,61,0.00,0
5412,-36,0,0,61,0.00,0
5413,23,0,0,61,0.00,0
5414,61,0,0,61,0.00,0
5415,69,0,0,61,0.00,0
5416,48,0,0,61,0.00,0
5417,2,0,0,61,0.00,0
5418,-63,0,0,61,0.00,0
5419,-128,0,0,61,0.00,0
5420,-158,0,0,61,0.00,0
5421,-116,0,0,61,0.00,0
5422,8,0,0,61,0.00,0
5423,176,0,0,61,0.00,0
5424,309,0,0,61,0.00,0
5425,336,0,0,61,0.00,0
5426,238,0,0,61,0.00,0
5427,65,0,0,61,0.00,0
5428,-98,0,0,61,0.00,0
5429,-180,0,0,61,0.00,0
5430,-161,0,0,61,0.00,0
5431,-72,0,0,61,0.00,0
5432,33,0,0,61,0.00,0
5433,107,0,0,61,0.00,0
5434,132,0,0,61,0.00,0
5435,113,0,0,61,0.00,0
5436,74,0,0,61,0.00,0
5437,39,0,0,61,0.00,0
5438,29,0,0,61,0.00,0
5439,45,0,0,61,0.00,0
5440,72,0,0,61,0.00,0
5441,82,0,0,61,0.00,0
5442,55,0,0,61,0.00,0
5443,-1,0,0,61,0.00,0
5444,-56,0,0,61,0.00,0
5445,-72,0,0,61,0.00,0
5446,-38,0,0,61,0.00,0
5447,22,0,0,61,0.00,0
5448,68,0,0,61,0.00,0
5449,72,0,0,61,0.00,0
5450,44,0,0,61,0.00,0
5451,26,0,0,61,0.00,0
5452,51,0,0,61,0.00,0
5453,121,0,0,61,0.00,0
5454,196,0,0,61,0.00,0
5455,227,0,0,61,0.00,0
5456,186,0,0,61,0.00,0
5457,84,0,0,61,0.00,0
5458,-34,0,0,61,0.00,0
5459,-118,0,0,61,0.00,0
5460,-135,0,0,61,0.00,0
5461,-79,0,0,61,0.00,0
5462,23,0,0,61,0.00,0
5463,128,0,0,61,0.00,0
5464,191,0,0,61,0.00,0
5465,185,0,0,61,0.00,0
5466,119,0,0,61,0.00,0
5467,30,0,0,61,0.00,0
5468,-36,0,0,61,0.00,0
5469,-56,0,0,61,0.00,0
5470,-38,0,0,61,0.00,0
5471,-15,0,0,61,0.00,0
5472,-10,0,0,61,0.00,0
5473,-29,0,0,61,0.00,0
5474,-54,0,0,61,0.00,0
5475,-66,0,0,61,0.00,0
5476,-59,0,0,61,0.00,0
5477,-44,0,0,61,0.00,0
5478,-30,0,0,61,0.00,0
5479,-22,0,0,61,0.00,0
5480,-19,0,0,61,0.00,0
5481,-24,0,0,61,0.00,0
5482,-43,0,0,61,0.00,0
5483,-81,0,0,61,0.00,0
